##NAMES=Topaz
##RRUFFID=R040121
##IDEAL CHEMISTRY=Al_2_SiO_4_F_2_
##LOCALITY=Tepetate, San Luis Potosi, Mexico
##OWNER=RRUFF
##SOURCE=University of Arizona Mineral Museum
##DESCRIPTION=Fragments of a prismatic single crystal
##STATUS=The identification of this mineral has been confirmed by X-ray diffraction and chemical analysis
##URL=rruff.info/R040121
##MEASURED CHEMISTRY=Al_2.00_(Si_0.99_Al_0.02_)(F_0.82_(OH)_0.18_)_2_
135.3528, 69.02406
137.2813, 76.88103
139.2097, 83.61752
141.1382, 89.63593
143.0667, 91.69260
144.9951, 96.51742
146.9236, 107.0381
148.8521, 126.3251
150.7805, 148.4951
152.7090, 179.8949
154.6375, 216.1608
156.5659, 240.6508
158.4944, 244.8627
160.4229, 239.7554
162.3513, 232.2267
164.2798, 222.4687
166.2083, 210.5358
168.1367, 195.6613
170.0652, 177.7002
171.9937, 160.1679
173.9221, 142.1264
175.8506, 124.9105
177.7791, 110.1597
179.7075, 96.92033
181.6360, 87.39859
183.5645, 82.01551
185.4929, 83.06593
187.4214, 84.75110
189.3499, 87.02322
191.2783, 89.90543
193.2068, 93.24107
195.1353, 97.23961
197.0637, 101.5804
198.9922, 106.1204
200.9207, 110.9890
202.8491, 115.8720
204.7776, 119.3740
206.7061, 122.4521
208.6345, 128.9765
210.5630, 140.2377
212.4915, 154.5498
214.4199, 170.7160
216.3484, 186.3980
218.2769, 207.9810
220.2053, 237.7853
222.1338, 275.3151
224.0623, 318.0421
225.9907, 346.6243
227.9192, 388.3438
229.8477, 468.6410
231.7761, 576.9348
233.7046, 738.5228
235.6331, 983.2447
237.5615, 1358.387
239.4900, 1626.860
241.4185, 1786.699
243.3469, 1840.064
245.2754, 1806.889
247.2039, 1642.294
249.1323, 1449.862
251.0608, 1250.059
252.9893, 1019.429
254.9177, 864.4159
256.8462, 775.4145
258.7747, 771.9749
260.7031, 866.5536
262.6316, 1149.128
264.5601, 1448.995
266.4885, 1740.984
268.4170, 2048.528
270.3455, 2230.947
272.2739, 2189.338
274.2024, 2019.917
276.1309, 1874.237
278.0593, 1707.772
279.9878, 1605.808
281.9163, 1638.900
283.8447, 1824.539
285.7732, 1964.386
287.7017, 2034.093
289.6301, 2035.974
291.5586, 1948.458
293.4871, 1712.657
295.4155, 1443.115
297.3440, 1154.173
299.2725, 839.0969
301.2009, 580.5195
303.1294, 408.1577
305.0579, 299.2681
306.9863, 225.8538
308.9148, 200.9719
310.8433, 194.9017
312.7717, 204.7616
314.7002, 230.8541
316.6287, 253.2811
318.5571, 266.8666
320.4856, 275.1567
322.4141, 283.6389
324.3425, 287.4663
326.2710, 296.7158
328.1995, 320.2529
330.1279, 360.3398
332.0564, 386.3102
333.9849, 394.7688
335.9133, 388.5904
337.8418, 369.6349
339.7703, 333.7361
341.6987, 293.9213
343.6272, 251.7960
345.5557, 205.7171
347.4841, 170.3137
349.4126, 147.0971
351.3411, 133.1046
353.2695, 126.3935
355.1980, 129.2828
357.1265, 133.1758
359.0549, 135.3258
360.9834, 135.5727
362.9119, 136.3658
364.8403, 137.2286
366.7688, 138.8327
368.6973, 142.3383
370.6257, 148.9408
372.5542, 153.5691
374.4827, 154.0815
376.4111, 150.9588
378.3396, 148.8186
380.2681, 146.5820
382.1965, 145.9658
384.1250, 147.7845
386.0535, 151.7268
387.9819, 158.5490
389.9104, 165.2655
391.8389, 174.2003
393.7673, 194.1772
395.6958, 222.2802
397.6243, 261.7470
399.5527, 324.7839
401.4812, 414.6017
403.4097, 477.6393
405.3381, 502.1485
407.2666, 498.7699
409.1951, 476.8837
411.1235, 428.8785
413.0520, 376.6729
414.9805, 322.5645
416.9089, 266.9521
418.8374, 221.0288
420.7659, 187.3296
422.6943, 162.2706
424.6228, 145.3378
426.5513, 137.8799
428.4797, 133.3014
430.4082, 131.3642
432.3367, 131.3974
434.2651, 131.9613
436.1936, 132.0723
438.1221, 133.4989
440.0505, 136.5271
441.9790, 140.7916
443.9075, 148.9599
445.8359, 159.2716
447.7644, 174.7403
449.6929, 199.6684
451.6213, 246.7921
453.5498, 291.2207
455.4783, 335.5623
457.4067, 376.8338
459.3352, 394.4944
461.2637, 372.9928
463.1921, 336.5401
465.1206, 300.9363
467.0491, 265.5659
468.9775, 232.1220
470.9060, 196.9225
472.8345, 164.5136
474.7629, 142.8573
476.6914, 135.7003
478.6199, 134.9650
480.5483, 137.6336
482.4768, 144.6746
484.4053, 151.8292
486.3337, 159.3818
488.2622, 166.8712
490.1907, 174.5718
492.1191, 183.7753
494.0476, 189.3249
495.9761, 189.4749
497.9045, 184.9665
499.8330, 178.4444
501.7615, 166.5313
503.6899, 155.8202
505.6184, 149.5462
507.5469, 147.3011
509.4753, 146.6672
511.4038, 148.1346
513.3323, 150.6044
515.2607, 153.2023
517.1892, 157.4935
519.1177, 160.0154
521.0461, 159.5945
522.9746, 157.0024
524.9031, 154.1559
526.8315, 150.1662
528.7600, 147.1030
530.6885, 146.0587
532.6169, 147.9355
534.5454, 149.0780
536.4739, 147.2177
538.4023, 145.9581
540.3308, 147.9969
542.2593, 153.1786
544.1877, 162.2159
546.1162, 175.1839
548.0447, 191.7387
549.9731, 210.9830
551.9016, 228.6013
553.8301, 252.2603
555.7585, 289.8521
557.6870, 339.7528
559.6155, 382.4336
561.5439, 422.4644
563.4724, 449.6131
565.4009, 454.4644
567.3293, 428.3069
569.2578, 394.8389
571.1863, 348.8893
573.1147, 298.1218
575.0432, 254.1409
576.9717, 218.3180
578.9001, 188.7605
580.8286, 164.6953
582.7571, 146.4687
584.6855, 133.4170
586.6140, 128.5188
588.5425, 126.0606
590.4709, 122.7803
592.3994, 118.3505
594.3279, 116.0986
596.2563, 118.6877
598.1848, 122.6794
600.1133, 124.1734
602.0417, 120.6931
603.9702, 118.8237
605.8987, 121.3433
607.8271, 126.0550
609.7556, 128.5229
611.6841, 126.7702
613.6125, 124.8700
615.5410, 124.6424
617.4695, 126.3116
619.3979, 125.9834
621.3264, 120.4505
623.2549, 115.5506
625.1833, 114.9039
627.1118, 118.7398
629.0403, 123.3688
630.9688, 128.2300
632.8972, 133.4518
634.8257, 139.2016
636.7542, 145.0364
638.6826, 152.0415
640.6111, 162.2811
642.5396, 173.4924
644.4680, 181.9360
646.3965, 188.0365
648.3250, 189.9876
650.2534, 186.6532
652.1819, 177.9966
654.1104, 168.6299
656.0388, 156.9106
657.9673, 145.9866
659.8958, 137.7058
661.8242, 131.8848
663.7527, 126.6734
665.6812, 120.7878
667.6096, 116.0924
669.5381, 114.0179
671.4666, 116.9385
673.3950, 118.9993
675.3235, 119.9294
677.2520, 120.0427
679.1804, 119.6106
681.1089, 118.0519
683.0374, 117.4574
684.9658, 118.9348
686.8943, 121.8060
688.8228, 123.9855
690.7512, 125.0412
692.6797, 125.9246
694.6082, 127.3084
696.5366, 128.8092
698.4651, 128.7512
700.3936, 124.8338
702.3220, 121.9685
704.2505, 122.6119
706.1790, 127.6946
708.1074, 131.9547
710.0359, 136.3578
711.9644, 139.3525
713.8928, 139.2415
715.8213, 136.0282
717.7498, 132.6742
719.6782, 129.1561
721.6067, 126.1084
723.5352, 124.2478
725.4636, 125.1420
727.3921, 124.3955
729.3206, 119.3625
731.2490, 113.4071
733.1775, 111.9209
735.1060, 116.4307
737.0344, 120.5156
738.9629, 121.9099
740.8914, 121.6067
742.8198, 121.4186
744.7483, 121.5762
746.6768, 121.5764
748.6052, 121.3153
750.5337, 120.8107
752.4622, 120.1346
754.3906, 118.8488
756.3191, 118.0315
758.2476, 118.3224
760.1760, 119.5301
762.1045, 120.6602
764.0330, 122.6013
765.9614, 123.5228
767.8899, 122.0460
769.8184, 117.9211
771.7468, 115.6292
773.6753, 116.2142
775.6038, 117.6915
777.5322, 119.1139
779.4607, 120.4764
781.3892, 122.0457
783.3176, 124.2535
785.2461, 126.3735
787.1746, 128.0776
789.1030, 129.4032
791.0315, 130.0473
792.9600, 129.5665
794.8884, 128.7003
796.8169, 127.9043
798.7454, 127.1425
800.6738, 126.6896
802.6023, 125.2323
804.5308, 124.9743
806.4592, 128.0107
808.3877, 138.6602
810.3162, 145.3930
812.2446, 145.5857
814.1731, 143.2438
816.1016, 142.2417
818.0300, 142.3778
819.9585, 144.3314
821.8870, 149.9152
823.8154, 156.6967
825.7439, 162.1136
827.6724, 164.0471
829.6008, 168.2840
831.5293, 176.3427
833.4578, 186.4586
835.3862, 195.7104
837.3147, 202.8165
839.2432, 213.1458
841.1716, 228.5398
843.1001, 247.9159
845.0286, 270.2455
846.9570, 296.3947
848.8855, 323.8831
850.8140, 355.5459
852.7424, 387.2556
854.6709, 412.8191
856.5994, 435.9034
858.5278, 446.5580
860.4563, 438.3140
862.3848, 417.5406
864.3132, 392.0367
866.2417, 359.0074
868.1702, 328.5575
870.0986, 301.7677
872.0271, 278.9567
873.9556, 261.0237
875.8840, 248.1868
877.8125, 240.0826
879.7410, 238.8925
881.6694, 241.8580
883.5979, 244.4786
885.5264, 245.6990
887.4548, 250.1969
889.3833, 260.9246
891.3118, 274.9687
893.2402, 288.8474
895.1687, 299.4057
897.0972, 315.3297
899.0256, 337.8475
900.9541, 365.6166
902.8826, 397.3504
904.8110, 432.7965
906.7395, 471.8227
908.6680, 511.5289
910.5964, 556.8217
912.5249, 609.8607
914.4534, 667.0822
916.3818, 745.0532
918.3103, 858.2599
920.2388, 984.0025
922.1672, 1101.780
924.0957, 1208.101
926.0242, 1314.206
927.9526, 1424.295
929.8811, 1531.154
931.8096, 1636.943
933.7380, 1744.370
935.6665, 1816.730
937.5950, 1855.825
939.5234, 1847.304
941.4519, 1776.471
943.3804, 1629.096
945.3088, 1465.680
947.2373, 1267.880
949.1658, 1072.174
951.0942, 893.2358
953.0227, 732.2520
954.9512, 601.5606
956.8796, 510.6566
958.8081, 441.7482
960.7366, 386.2847
962.6650, 343.9015
964.5935, 314.9029
966.5220, 310.1263
968.4504, 307.9361
970.3789, 301.1212
972.3074, 291.0187
974.2358, 286.9963
976.1643, 288.4687
978.0928, 295.7920
980.0212, 314.7091
981.9497, 338.7462
983.8782, 354.9485
985.8066, 361.4379
987.7351, 363.3423
989.6636, 362.5193
991.5920, 358.2219
993.5205, 348.6658
995.4490, 326.6638
997.3774, 310.4596
999.3059, 301.7522
1001.234, 298.9555
1003.163, 301.6223
1005.091, 310.5034
1007.020, 319.2425
1008.948, 331.4558
1010.877, 339.1079
1012.805, 336.0428
1014.734, 321.5400
1016.662, 306.7960
1018.591, 293.8162
1020.519, 280.3905
1022.448, 264.6625
1024.376, 246.3744
1026.304, 231.6233
1028.233, 221.7203
1030.161, 213.4913
1032.090, 205.8179
1034.018, 199.0677
1035.947, 194.0992
1037.875, 191.2711
1039.804, 189.5840
1041.732, 189.5141
1043.661, 190.1210
1045.589, 189.8007
1047.518, 188.1801
1049.446, 186.3285
1051.375, 184.1754
1053.303, 181.9966
1055.231, 180.0173
1057.160, 178.1380
1059.088, 176.8623
1061.017, 176.5602
1062.945, 176.5986
1064.874, 176.4657
1066.802, 176.2273
1068.731, 176.6574
1070.659, 178.7394
1072.588, 180.2477
1074.516, 180.1265
1076.445, 178.6092
1078.373, 177.0930
1080.302, 174.2328
1082.230, 173.0647
1084.158, 175.6859
1086.087, 179.8591
1088.015, 181.0284
1089.944, 177.8429
1091.872, 176.3866
1093.801, 180.1510
1095.729, 184.3187
1097.658, 184.5278
1099.586, 180.7041
1101.515, 177.9668
1103.443, 178.0096
1105.372, 178.3554
1107.300, 178.0356
1109.229, 177.0561
1111.157, 175.5548
1113.085, 171.9642
1115.014, 169.7506
1116.942, 170.0062
1118.871, 172.0801
1120.799, 174.9294
1122.728, 179.1292
1124.656, 182.2454
1126.585, 183.7589
1128.513, 183.9279
1130.442, 182.3467
1132.370, 178.9187
1134.299, 177.4364
1136.227, 180.5792
1138.156, 183.4047
1140.084, 183.0259
1142.012, 179.9583
1143.941, 178.9863
1145.869, 182.8664
1147.798, 185.3895
1149.726, 183.7189
1151.655, 180.7031
1153.583, 181.8762
1155.512, 188.8612
1157.440, 192.6020
1159.369, 187.8604
1161.297, 182.5122
1163.226, 182.4919
1165.154, 187.1159
1167.083, 190.3607
1169.011, 190.9204
1170.939, 190.9771
1172.868, 191.3015
1174.796, 191.7486
1176.725, 191.9456
1178.653, 192.0313
1180.582, 191.6055
1182.510, 189.7697
1184.439, 188.0047
1186.367, 188.1828
1188.296, 190.7954
1190.224, 191.4908
1192.153, 188.3512
1194.081, 185.2191
1196.010, 183.4575
1197.938, 183.0361
1199.866, 184.1295
1201.795, 187.2722
1203.723, 190.4368
1205.652, 192.8062
1207.580, 195.0272
1209.509, 197.9190
1211.437, 201.8879
1213.366, 204.5679
1215.294, 205.8899
1217.223, 205.8904
1219.151, 203.6142
1221.080, 199.7484
1223.008, 197.7485
1224.937, 198.1792
1226.865, 199.3130
1228.793, 200.4682
1230.722, 202.4773
1232.650, 207.5574
1234.579, 215.7345
1236.507, 219.5310
1238.436, 214.9016
1240.364, 209.8965
1242.293, 208.8802
1244.221, 210.4939
1246.150, 210.8033
1248.078, 208.1719
1250.007, 208.1399
1251.935, 214.3124
1253.864, 221.5228
1255.792, 225.2286
1257.720, 224.6179
1259.649, 225.2860
1261.577, 229.3511
1263.506, 232.0878
1265.434, 231.5330
1267.363, 228.7015
1269.291, 225.0468
1271.220, 219.0157
1273.148, 217.5423
1275.077, 226.5931
1277.005, 236.4028
1278.934, 240.1862
1280.862, 239.1187
1282.791, 238.0870
1284.719, 237.9505
1286.647, 236.7704
1288.576, 230.9249
1290.504, 225.3269
1292.433, 226.6879
1294.361, 236.8732
1296.290, 244.4601
1298.218, 247.3508
1300.147, 248.6790
1302.075, 248.5586
1304.004, 247.7167
1305.932, 248.5593
1307.861, 253.2415
1309.789, 256.4023
1311.718, 256.6717
1313.646, 256.3245
1315.574, 256.9125
1317.503, 258.4321
1319.431, 260.6440
1321.360, 265.3682
1323.288, 267.4062
1325.217, 261.2705
1327.145, 253.8348
1329.074, 253.2520
1331.002, 259.6939
1332.931, 265.3885
1334.859, 269.8446
1336.788, 272.3582
1338.716, 271.3934
1340.645, 268.6187
1342.573, 267.9146
1344.501, 270.0684
1346.430, 271.9201
1348.358, 272.9800
1350.287, 273.7045
1352.215, 274.4082
1354.144, 275.0212
1356.072, 275.0711
1358.001, 273.5462
1359.929, 272.8791
1361.858, 273.1867
1363.786, 274.4710
1365.715, 277.3291
1367.643, 281.7344
1369.572, 284.5381
1371.500, 285.1359
1373.428, 285.1475
1375.357, 284.3611
1377.285, 283.6124
1379.214, 283.7967
1381.142, 284.8808
1383.071, 286.8594
1384.999, 291.8447
1386.928, 294.1051
1388.856, 286.6288
1390.785, 277.0507
1392.713, 277.2635
1394.642, 288.6531
1396.570, 296.8483
1398.499, 298.5351
1400.427, 298.2117
1402.355, 297.0701
1404.284, 295.4187
1406.212, 293.7443
1408.141, 291.4769
1410.069, 290.8662
1411.998, 292.9300
1413.926, 295.6883
1415.855, 298.4927
1417.783, 301.2983
1419.712, 303.9972
1421.640, 307.3300
1423.569, 309.2372
1425.497, 309.1122
1427.426, 308.1673
1429.354, 306.4307
1431.282, 304.3582
1433.211, 303.6844
1435.139, 304.5546
1437.068, 306.2156
1438.996, 308.4400
1440.925, 311.5322
1442.853, 317.5118
1444.782, 324.4554
1446.710, 326.0414
1448.639, 320.6559
1450.567, 315.8551
1452.496, 313.1456
1454.424, 311.8351
1456.353, 311.5195
1458.281, 312.2181
1460.209, 314.6983
1462.138, 320.1320
1464.066, 322.6817
1465.995, 317.1916
1467.923, 312.5239
1469.852, 315.5796
1471.780, 323.8966
1473.709, 327.1667
1475.637, 323.2103
1477.566, 320.6168
1479.494, 321.8544
1481.423, 323.9708
1483.351, 325.4411
1485.280, 326.5984
1487.208, 328.6736
1489.136, 331.9335
1491.065, 335.5402
1492.993, 341.5805
1494.922, 345.6219
1496.850, 342.6090
1498.779, 336.2458
1500.707, 336.9253
1502.636, 349.4340
1504.564, 359.5500
1506.493, 369.4912
1508.421, 374.6111
1510.350, 368.1433
1512.278, 356.8734
1514.207, 355.0411
1516.135, 366.7012
1518.063, 374.0856
1519.992, 375.5328
1521.920, 374.3681
1523.849, 368.4646
1525.777, 362.2143
1527.706, 363.6200
1529.634, 373.3830
1531.563, 378.1732
1533.491, 372.5927
1535.420, 369.4569
1537.348, 375.6523
1539.277, 384.2692
1541.205, 387.6466
1543.134, 386.5138
1545.062, 386.2691
1546.990, 387.8842
1548.919, 388.6742
1550.847, 384.9061
1552.776, 382.5662
1554.704, 388.7293
1556.633, 400.0623
1558.561, 405.4109
1560.490, 402.6994
1562.418, 401.3529
1564.347, 404.7157
1566.275, 408.6130
1568.204, 411.4347
1570.132, 412.7966
1572.061, 410.7584
1573.989, 404.6779
1575.917, 402.1443
1577.846, 404.8532
1579.774, 410.4446
1581.703, 421.6927
1583.631, 432.8756
1585.560, 435.9274
1587.488, 431.2801
1589.417, 429.5198
1591.345, 432.5805
1593.274, 436.0802
1595.202, 438.8907
1597.131, 441.4476
1599.059, 444.6028
1600.988, 447.8758
1602.916, 448.7859
1604.844, 446.7353
1606.773, 444.2896
1608.701, 439.4423
1610.630, 437.4614
1612.558, 443.1610
1614.487, 452.2020
1616.415, 456.3624
1618.344, 454.9424
1620.272, 455.6984
1622.201, 461.5443
1624.129, 465.5797
1626.058, 464.1205
1627.986, 461.5816
1629.915, 461.8714
1631.843, 464.6822
1633.771, 466.9526
1635.700, 468.9451
1637.628, 469.6478
1639.557, 465.1316
1641.485, 463.5352
1643.414, 471.1063
1645.342, 482.7995
1647.271, 489.0812
1649.199, 488.8994
1651.128, 491.1721
1653.056, 499.2110
1654.985, 504.8702
1656.913, 504.3901
1658.842, 502.6341
1660.770, 503.9632
1662.698, 507.4601
1664.627, 507.6081
1666.555, 502.1715
1668.484, 500.3537
1670.412, 506.6184
1672.341, 512.4805
1674.269, 515.2715
1676.198, 515.9105
1678.126, 514.7307
1680.055, 511.5748
1681.983, 511.1524
1683.912, 514.0957
1685.840, 518.5381
1687.769, 524.5977
1689.697, 531.5662
1691.625, 541.7561
1693.554, 551.7601
1695.482, 552.7706
1697.411, 542.8142
1699.339, 538.8312
1701.268, 545.7408
1703.196, 551.6204
1705.125, 551.6508
1707.053, 551.3488
1708.982, 555.6185
1710.910, 562.7640
1712.839, 566.5280
1714.767, 566.3522
1716.696, 565.4716
1718.624, 562.2300
1720.552, 561.6048
1722.481, 568.7216
1724.409, 576.0906
1726.338, 575.7770
1728.266, 569.6383
1730.195, 567.1175
1732.123, 568.1064
1734.052, 574.3194
1735.980, 592.2072
1737.909, 605.5206
1739.837, 605.2421
1741.766, 599.1365
1743.694, 592.2227
1745.623, 585.6069
1747.551, 586.4371
1749.479, 597.1552
1751.408, 604.0367
1753.336, 601.3441
1755.265, 599.4580
1757.193, 605.0865
1759.122, 612.4949
1761.050, 615.2628
1762.979, 614.5426
1764.907, 615.4266
1766.836, 617.9485
1768.764, 623.6880
1770.693, 637.4490
1772.621, 647.1394
1774.550, 641.1184
1776.478, 632.6492
1778.406, 637.3020
1780.335, 651.2961
1782.263, 659.5389
1784.192, 660.5106
1786.120, 661.2513
1788.049, 662.0253
1789.977, 664.3323
1791.906, 670.7665
1793.834, 677.4293
1795.763, 679.5049
1797.691, 678.4865
1799.620, 681.1896
1801.548, 689.1606
1803.477, 692.2529
1805.405, 682.3468
1807.333, 677.7036
1809.262, 688.9189
1811.190, 702.5915
1813.119, 707.2159
1815.047, 705.7247
1816.976, 706.5625
1818.904, 710.4628
1820.833, 713.5341
1822.761, 716.5394
1824.690, 717.5931
1826.618, 711.4462
1828.547, 708.5808
1830.475, 719.7435
1832.404, 736.7490
1834.332, 743.6829
1836.260, 739.5216
1838.189, 738.6097
1840.117, 742.4024
1842.046, 746.7889
1843.974, 750.3569
1845.903, 755.6901
1847.831, 767.7601
1849.760, 779.1807
1851.688, 780.0787
1853.617, 772.1075
1855.545, 767.2578
1857.474, 765.4208
1859.402, 767.5408
1861.331, 776.2460
1863.259, 784.0731
1865.188, 785.7249
1867.116, 788.5875
1869.044, 801.5954
1870.973, 817.5674
1872.901, 820.7937
1874.830, 812.1721
1876.758, 808.6476
1878.687, 813.0066
1880.615, 817.0865
1882.544, 817.9824
1884.472, 819.5530
1886.401, 825.4576
1888.329, 831.6097
1890.258, 830.8248
1892.186, 826.5085
1894.115, 833.8414
1896.043, 856.0676
1897.971, 868.5109
1899.900, 861.4415
1901.828, 857.1985
1903.757, 863.9408
1905.685, 870.6348
1907.614, 869.9740
1909.542, 865.7830
1911.471, 862.8258
1913.399, 861.2152
1915.328, 862.6725
1917.256, 868.3856
1919.185, 874.3419
1921.113, 881.0623
1923.042, 887.1326
1924.970, 894.3920
1926.898, 898.6232
1928.827, 892.5261
1930.755, 883.7962
1932.684, 886.6758
1934.612, 900.3113
1936.541, 916.3693
1938.469, 936.2834
1940.398, 948.6244
1942.326, 950.0096
1944.255, 946.4017
1946.183, 932.3854
1948.112, 922.4149
1950.040, 931.7205
1951.969, 949.7245
1953.897, 958.1857
1955.825, 958.2287
1957.754, 960.3665
1959.682, 965.4474
1961.611, 970.5743
1963.539, 977.1182
1965.468, 981.2177
1967.396, 978.4667
1969.325, 976.5629
1971.253, 980.9744
1973.182, 989.5081
1975.110, 999.1966
1977.039, 1009.931
1978.967, 1021.174
1980.896, 1035.762
1982.824, 1040.530
1984.752, 1027.192
1986.681, 1017.968
1988.609, 1019.749
1990.538, 1025.494
1992.466, 1033.827
1994.395, 1042.388
1996.323, 1048.935
1998.252, 1053.351
2000.180, 1053.384
2002.109, 1048.763
2004.037, 1052.485
2005.966, 1069.758
2007.894, 1083.927
2009.823, 1089.044
2011.751, 1092.958
2013.679, 1099.449
2015.608, 1105.586
2017.536, 1108.890
2019.465, 1109.826
2021.393, 1107.814
2023.322, 1102.674
2025.250, 1104.975
2027.179, 1117.697
2029.107, 1129.147
2031.036, 1119.698
2032.964, 1140.996
2034.893, 1255.200
2036.821, 1344.837
2038.750, 1335.847
2040.678, 1282.175
2042.606, 1229.355
2044.535, 1183.200
2046.463, 1163.778
2048.392, 1170.502
2050.320, 1174.477
2052.249, 1171.553
2054.177, 1172.887
2056.106, 1184.837
2058.034, 1195.149
2059.963, 1198.672
2061.891, 1201.001
2063.820, 1204.496
2065.748, 1209.945
2067.677, 1221.308
2069.605, 1235.947
2071.533, 1239.385
2073.462, 1229.362
2075.390, 1225.645
2077.319, 1229.810
2079.247, 1237.334
2081.176, 1251.121
2083.104, 1260.830
2085.033, 1257.900
2086.961, 1255.458
2088.890, 1264.359
2090.818, 1276.921
2092.747, 1284.069
2094.675, 1287.135
2096.604, 1289.908
2098.532, 1292.213
2100.460, 1296.375
2102.389, 1302.770
2104.317, 1310.281
2106.246, 1321.204
2108.174, 1329.792
2110.103, 1335.346
2112.031, 1337.662
2113.960, 1331.839
2115.888, 1327.032
2117.817, 1333.613
2119.745, 1347.274
2121.674, 1361.584
2123.602, 1375.127
2125.531, 1376.723
2127.459, 1363.982
2129.387, 1361.016
2131.316, 1374.994
2133.244, 1388.178
2135.173, 1398.309
2137.101, 1405.152
2139.030, 1406.903
2140.958, 1407.259
2142.887, 1408.104
2144.815, 1409.562
2146.744, 1411.868
2148.672, 1414.913
2150.601, 1417.704
2152.529, 1420.419
2154.458, 1427.454
2156.386, 1439.799
2158.314, 1449.489
2160.243, 1453.686
2162.171, 1460.059
2164.100, 1476.049
2166.028, 1487.216
2167.957, 1484.350
2169.885, 1478.382
2171.814, 1473.991
2173.742, 1473.685
2175.671, 1483.819
2177.599, 1500.394
2179.528, 1509.796
2181.456, 1512.084
2183.385, 1518.079
2185.313, 1528.862
2187.241, 1535.377
2189.170, 1535.409
2191.098, 1535.120
2193.027, 1533.284
2194.955, 1536.372
2196.884, 1551.916
2198.812, 1567.123
2200.741, 1575.345
2202.669, 1578.290
2204.598, 1571.919
2206.526, 1564.292
2208.455, 1576.238
2210.383, 1604.062
2212.312, 1616.448
2214.240, 1612.815
2216.168, 1610.328
2218.097, 1610.037
2220.025, 1610.336
2221.954, 1608.624
2223.882, 1613.803
2225.811, 1634.563
2227.739, 1654.294
2229.668, 1668.793
2231.596, 1677.330
2233.525, 1673.349
2235.453, 1668.307
2237.382, 1678.813
2239.310, 1696.749
2241.239, 1702.657
2243.167, 1699.023
2245.095, 1700.645
2247.024, 1707.622
2248.952, 1715.389
2250.881, 1723.956
2252.809, 1730.512
2254.738, 1731.749
2256.666, 1737.471
2258.595, 1754.878
2260.523, 1769.595
2262.452, 1774.945
2264.380, 1778.862
2266.309, 1788.584
2268.237, 1796.019
2270.166, 1788.771
2272.094, 1778.070
2274.022, 1782.530
2275.951, 1796.480
2277.879, 1803.988
2279.808, 1806.286
2281.736, 1817.851
2283.665, 1842.113
2285.593, 1857.171
2287.522, 1858.729
2289.450, 1858.100
2291.379, 1850.405
2293.307, 1849.775
2295.236, 1863.039
2297.164, 1875.813
2299.093, 1883.088
2301.021, 1888.470
2302.949, 1892.476
2304.878, 1897.122
2306.806, 1905.177
2308.735, 1914.121
2310.663, 1918.569
2312.592, 1921.945
2314.520, 1935.697
2316.449, 1957.496
2318.377, 1966.392
2320.306, 1962.113
2322.234, 1962.474
2324.163, 1968.161
2326.091, 1979.332
2328.020, 1998.004
2329.948, 2014.080
2331.876, 2029.304
2333.805, 2034.591
2335.733, 2015.855
2337.662, 2003.931
2339.590, 2015.866
2341.519, 2030.314
2343.447, 2033.600
2345.376, 2036.340
2347.304, 2046.903
2349.233, 2062.043
2351.161, 2080.161
2353.090, 2098.867
2355.018, 2117.240
2356.947, 2132.046
2358.875, 2125.987
2360.803, 2099.637
2362.732, 2089.661
2364.660, 2098.607
2366.589, 2108.082
2368.517, 2117.696
2370.446, 2127.244
2372.374, 2135.540
2374.303, 2149.124
2376.231, 2176.070
2378.160, 2194.069
2380.088, 2192.982
2382.017, 2187.319
2383.945, 2172.938
2385.874, 2167.619
2387.802, 2189.440
2389.730, 2214.015
2391.659, 2225.402
2393.587, 2228.544
2395.516, 2222.620
2397.444, 2215.888
2399.373, 2221.727
2401.301, 2235.436
2403.230, 2246.381
2405.158, 2255.026
2407.087, 2263.001
2409.015, 2270.279
2410.944, 2283.310
2412.872, 2302.414
2414.801, 2315.011
2416.729, 2319.624
2418.657, 2325.101
2420.586, 2333.812
2422.514, 2338.905
2424.443, 2333.766
2426.371, 2334.288
2428.300, 2347.202
2430.228, 2358.736
2432.157, 2365.844
2434.085, 2371.333
2436.014, 2375.036
2437.942, 2379.271
2439.871, 2383.113
2441.799, 2390.638
2443.728, 2409.090
2445.656, 2428.093
2447.584, 2435.213
2449.513, 2438.943
2451.441, 2452.350
2453.370, 2468.874
2455.298, 2475.844
2457.227, 2476.989
2459.155, 2480.037
2461.084, 2485.217
2463.012, 2493.558
2464.941, 2504.806
2466.869, 2515.945
2468.798, 2527.615
2470.726, 2531.059
2472.655, 2524.978
2474.583, 2524.640
2476.511, 2531.092
2478.440, 2543.784
2480.368, 2567.071
2482.297, 2578.833
2484.225, 2559.436
2486.154, 2556.314
2488.082, 2587.824
2490.011, 2614.412
2491.939, 2630.748
2493.868, 2639.728
2495.796, 2637.915
2497.725, 2636.938
2499.653, 2639.663
2501.582, 2647.917
2503.510, 2669.995
2505.438, 2688.531
2507.367, 2688.602
2509.295, 2684.701
2511.224, 2682.668
2513.152, 2687.911
2515.081, 2713.049
2517.009, 2740.774
2518.938, 2749.856
2520.866, 2750.215
2522.795, 2755.516
2524.723, 2764.060
2526.652, 2775.420
2528.580, 2786.127
2530.509, 2779.356
2532.437, 2764.750
2534.365, 2780.998
2536.294, 2819.357
2538.222, 2828.592
2540.151, 2811.055
2542.079, 2810.525
2544.008, 2828.057
2545.936, 2847.388
2547.865, 2868.724
2549.793, 2887.041
2551.722, 2902.271
2553.650, 2910.245
2555.579, 2908.719
2557.507, 2909.842
2559.436, 2916.723
2561.364, 2921.178
2563.292, 2919.576
2565.221, 2928.146
2567.149, 2953.000
2569.078, 2970.525
2571.006, 2973.181
2572.935, 2976.384
2574.863, 2983.512
2576.792, 2992.233
2578.720, 3004.687
2580.649, 3013.976
2582.577, 3011.636
2584.506, 3020.876
2586.434, 3057.573
2588.363, 3090.928
2590.291, 3108.331
2592.219, 3118.895
2594.148, 3124.881
2596.076, 3127.256
2598.005, 3119.980
2599.933, 3118.308
2601.862, 3137.861
2603.790, 3153.469
2605.719, 3141.212
2607.647, 3129.792
2609.576, 3139.995
2611.504, 3158.295
2613.433, 3175.029
2615.361, 3194.024
2617.290, 3225.194
2619.218, 3252.758
2621.146, 3262.372
2623.075, 3262.176
2625.003, 3251.965
2626.932, 3245.004
2628.860, 3263.220
2630.789, 3287.854
2632.717, 3291.549
2634.646, 3290.079
2636.574, 3308.543
2638.503, 3330.928
2640.431, 3326.081
2642.360, 3316.282
2644.288, 3349.691
2646.217, 3397.127
2648.145, 3396.971
2650.073, 3375.749
2652.002, 3383.044
2653.930, 3407.901
2655.859, 3435.724
2657.787, 3462.015
2659.716, 3473.544
2661.644, 3476.637
2663.573, 3490.323
2665.501, 3508.281
2667.430, 3510.109
2669.358, 3504.132
2671.287, 3512.959
2673.215, 3532.053
2675.144, 3551.328
2677.072, 3567.547
2679.000, 3561.407
2680.929, 3543.834
2682.857, 3555.770
2684.786, 3586.449
2686.714, 3597.523
2688.643, 3594.218
2690.571, 3595.340
2692.500, 3601.277
2694.428, 3617.473
2696.357, 3639.440
2698.285, 3647.903
2700.214, 3647.520
2702.142, 3658.074
2704.071, 3676.953
2705.999, 3694.195
2707.927, 3708.914
2709.856, 3715.191
2711.784, 3715.363
2713.713, 3717.791
2715.641, 3722.006
2717.570, 3721.548
2719.498, 3720.920
2721.427, 3748.813
2723.355, 3794.777
2725.284, 3802.493
2727.212, 3785.610
2729.141, 3789.554
2731.069, 3809.741
2732.998, 3834.672
2734.926, 3859.796
2736.854, 3863.446
2738.783, 3853.127
2740.711, 3853.039
2742.640, 3863.701
2744.568, 3893.744
2746.497, 3931.869
2748.425, 3942.090
2750.354, 3934.703
2752.282, 3938.910
2754.211, 3950.386
2756.139, 3955.591
2758.068, 3961.145
2759.996, 3985.977
2761.925, 4019.099
2763.853, 4036.793
2765.781, 4044.382
2767.710, 4049.549
2769.638, 4055.301
2771.567, 4068.501
2773.495, 4084.251
2775.424, 4090.175
2777.352, 4096.923
2779.281, 4128.066
2781.209, 4165.412
2783.138, 4178.759
2785.066, 4186.294
2786.995, 4215.343
2788.923, 4244.875
2790.852, 4246.461
2792.780, 4238.176
2794.708, 4233.755
2796.637, 4236.803
2798.565, 4261.394
2800.494, 4281.490
2802.422, 4261.457
2804.351, 4242.153
2806.279, 4256.158
2808.208, 4286.684
2810.136, 4337.338
2812.065, 4377.586
2813.993, 4375.801
2815.922, 4373.643
2817.850, 4403.851
2819.779, 4428.703
2821.707, 4418.625
2823.635, 4419.490
2825.564, 4470.779
2827.492, 4505.219
2829.421, 4472.249
2831.349, 4455.292
2833.278, 4493.936
2835.206, 4523.929
2837.135, 4524.557
2839.063, 4527.420
2840.992, 4544.478
2842.920, 4560.639
2844.849, 4569.251
2846.777, 4588.032
2848.706, 4624.313
2850.634, 4645.092
2852.563, 4637.610
2854.491, 4642.794
2856.419, 4673.651
2858.348, 4694.837
2860.276, 4704.208
2862.205, 4721.826
2864.133, 4749.800
2866.062, 4767.830
2867.990, 4773.111
2869.919, 4790.509
2871.847, 4819.842
2873.776, 4840.666
2875.704, 4851.699
2877.633, 4838.765
2879.561, 4810.388
2881.490, 4808.409
2883.418, 4827.672
2885.346, 4855.971
2887.275, 4885.480
2889.203, 4892.071
2891.132, 4890.384
2893.060, 4904.950
2894.989, 4930.150
2896.917, 4965.875
2898.846, 4998.157
2900.774, 5005.626
2902.703, 5008.498
2904.631, 5021.832
2906.560, 5043.709
2908.488, 5077.743
2910.417, 5112.833
2912.345, 5149.097
2914.273, 5173.947
2916.202, 5174.573
2918.130, 5172.170
2920.059, 5169.692
2921.987, 5175.414
2923.916, 5192.985
2925.844, 5213.463
2927.773, 5229.990
2929.701, 5261.435
2931.630, 5330.701
2933.558, 5354.201
2935.487, 5319.392
2937.415, 5296.589
2939.344, 5292.294
2941.272, 5319.460
2943.200, 5384.422
2945.129, 5400.328
2947.057, 5375.719
2948.986, 5394.394
2950.914, 5445.333
2952.843, 5461.293
2954.771, 5454.604
2956.700, 5459.064
2958.628, 5474.979
2960.557, 5508.568
2962.485, 5548.734
2964.414, 5591.495
2966.342, 5620.791
2968.271, 5604.882
2970.199, 5585.142
2972.127, 5592.772
2974.056, 5606.993
2975.984, 5604.496
2977.913, 5622.188
2979.841, 5707.610
2981.770, 5755.557
2983.698, 5714.002
2985.627, 5698.430
2987.555, 5774.335
2989.484, 5810.585
2991.412, 5786.105
2993.341, 5776.370
2995.269, 5788.052
2997.198, 5809.948
2999.126, 5842.063
3001.054, 5869.894
3002.983, 5893.292
3004.911, 5906.184
3006.840, 5913.938
3008.768, 5935.839
3010.697, 5966.339
3012.625, 6002.933
3014.554, 6030.255
3016.482, 6008.533
3018.411, 5982.604
3020.339, 5993.677
3022.268, 6021.860
3024.196, 6065.015
3026.125, 6099.709
3028.053, 6108.360
3029.981, 6121.141
3031.910, 6158.380
3033.838, 6185.886
3035.767, 6193.949
3037.695, 6201.770
3039.624, 6209.708
3041.552, 6233.881
3043.481, 6281.779
3045.409, 6312.209
3047.338, 6325.965
3049.266, 6341.981
3051.195, 6360.698
3053.123, 6384.299
3055.052, 6408.803
3056.980, 6416.528
3058.908, 6425.177
3060.837, 6474.046
3062.765, 6523.265
3064.694, 6528.312
3066.622, 6526.077
3068.551, 6541.690
3070.479, 6558.735
3072.408, 6563.527
3074.336, 6584.379
3076.265, 6644.588
3078.193, 6696.110
3080.122, 6737.219
3082.050, 6748.128
3083.979, 6721.986
3085.907, 6724.039
3087.835, 6756.378
3089.764, 6798.970
3091.692, 6845.265
3093.621, 6862.539
3095.549, 6866.342
3097.478, 6889.338
3099.406, 6918.472
3101.335, 6927.527
3103.263, 6945.270
3105.192, 7013.658
3107.120, 7069.096
3109.049, 7054.271
3110.977, 7057.841
3112.906, 7114.091
3114.834, 7155.612
3116.762, 7151.790
3118.691, 7170.828
3120.619, 7218.846
3122.548, 7257.646
3124.476, 7285.446
3126.405, 7301.808
3128.333, 7309.934
3130.262, 7320.428
3132.190, 7332.941
3134.119, 7344.793
3136.047, 7360.404
3137.976, 7383.334
3139.904, 7414.470
3141.833, 7464.139
3143.761, 7504.018
3145.689, 7523.322
3147.618, 7527.351
3149.546, 7497.012
3151.475, 7513.125
3153.403, 7587.132
3155.332, 7628.833
3157.260, 7630.898
3159.189, 7642.301
3161.117, 7660.478
3163.046, 7670.886
3164.974, 7679.759
3166.903, 7697.758
3168.831, 7721.016
3170.760, 7747.713
3172.688, 7774.114
3174.616, 7796.151
3176.545, 7820.623
3178.473, 7850.130
3180.402, 7884.889
3182.330, 7928.599
3184.259, 7953.602
3186.187, 7952.374
3188.116, 7966.180
3190.044, 7994.489
3191.973, 8034.519
3193.901, 8075.992
3195.830, 8088.092
3197.758, 8094.604
3199.687, 8128.585
3201.615, 8172.462
3203.543, 8225.790
3205.472, 8264.135
3207.400, 8265.405
3209.329, 8270.180
3211.257, 8284.063
3213.186, 8306.322
3215.114, 8338.024
3217.043, 8376.896
3218.971, 8419.879
3220.900, 8420.462
3222.828, 8402.312
3224.757, 8420.374
3226.685, 8453.284
3228.614, 8474.964
3230.542, 8497.160
3232.470, 8527.310
3234.399, 8560.473
3236.327, 8598.836
3238.256, 8630.972
3240.184, 8654.567
3242.113, 8680.401
3244.041, 8709.738
3245.970, 8737.868
3247.898, 8765.223
3249.827, 8792.669
3251.755, 8822.314
3253.684, 8871.443
3255.612, 8906.201
3257.541, 8867.153
3259.469, 8853.709
3261.397, 8942.947
3263.326, 9009.239
3265.254, 9023.307
3267.183, 9029.175
3269.111, 9030.232
3271.040, 9059.011
3272.968, 9110.977
3274.897, 9165.994
3276.825, 9210.148
3278.754, 9200.948
3280.682, 9192.863
3282.611, 9257.565
3284.539, 9311.791
3286.468, 9308.210
3288.396, 9316.559
3290.324, 9372.660
3292.253, 9407.305
3294.181, 9418.951
3296.110, 9433.190
3298.038, 9453.332
3299.967, 9493.451
3301.895, 9540.641
3303.824, 9569.734
3305.752, 9596.816
3307.681, 9634.084
3309.609, 9675.607
3311.538, 9722.802
3313.466, 9762.076
3315.395, 9790.135
3317.323, 9805.894
3319.251, 9810.022
3321.180, 9859.471
3323.108, 9936.999
3325.037, 10001.32
3326.965, 10051.32
3328.894, 10081.99
3330.822, 10102.63
3332.751, 10118.81
3334.679, 10124.60
3336.608, 10110.70
3338.536, 10116.39
3340.465, 10145.86
3342.393, 10166.59
3344.322, 10182.62
3346.250, 10232.41
3348.178, 10288.82
3350.107, 10306.30
3352.035, 10317.27
3353.964, 10342.27
3355.892, 10380.07
3357.821, 10436.49
3359.749, 10485.60
3361.678, 10524.14
3363.606, 10542.23
3365.535, 10550.67
3367.463, 10614.15
3369.392, 10701.04
3371.320, 10765.12
3373.249, 10801.27
3375.177, 10776.10
3377.105, 10779.01
3379.034, 10871.35
3380.962, 10922.27
3382.891, 10913.57
3384.819, 10967.61
3386.748, 11073.56
3388.676, 11122.21
3390.605, 11135.42
3392.533, 11134.36
3394.462, 11143.59
3396.390, 11180.57
3398.319, 11242.58
3400.247, 11341.01
3402.176, 11419.97
3404.104, 11469.65
3406.032, 11530.69
3407.961, 11590.84
3409.889, 11589.27
3411.818, 11573.60
3413.746, 11608.42
3415.675, 11671.79
3417.603, 11782.64
3419.532, 11855.06
3421.460, 11869.18
3423.389, 11833.48
3425.317, 11756.89
3427.246, 11802.80
3429.174, 11921.83
3431.103, 11979.74
3433.031, 12012.26
3434.959, 12044.56
3436.888, 12080.11
3438.816, 12121.38
3440.745, 12163.00
3442.673, 12205.92
3444.602, 12229.87
3446.530, 12240.67
3448.459, 12281.51
3450.387, 12331.62
3452.316, 12354.17
3454.244, 12386.18
3456.173, 12464.81
3458.101, 12514.46
3460.030, 12477.19
3461.958, 12504.69
3463.886, 12586.96
3465.815, 12596.06
3467.743, 12578.46
3469.672, 12638.15
3471.600, 12723.20
3473.529, 12815.20
3475.457, 12871.39
3477.386, 12854.40
3479.314, 12880.59
3481.243, 12956.57
3483.171, 13002.49
3485.100, 13028.55
3487.028, 13056.53
3488.957, 13105.24
3490.885, 13224.51
3492.813, 13307.20
3494.742, 13302.19
3496.670, 13326.11
3498.599, 13404.40
3500.527, 13390.83
3502.456, 13331.98
3504.384, 13405.02
3506.313, 13513.78
3508.241, 13565.72
3510.170, 13611.08
3512.098, 13674.85
3514.027, 13706.15
3515.955, 13691.35
3517.884, 13693.90
3519.812, 13715.21
3521.740, 13766.13
3523.669, 13821.55
3525.597, 13858.94
3527.526, 13881.55
3529.454, 13866.32
3531.383, 13904.80
3533.311, 14001.71
3535.240, 14084.16
3537.168, 14148.90
3539.097, 14189.29
3541.025, 14217.40
3542.954, 14232.82
3544.882, 14264.47
3546.811, 14332.75
3548.739, 14387.23
3550.667, 14426.27
3552.596, 14460.82
3554.524, 14503.88
3556.453, 14602.54
3558.381, 14696.15
3560.310, 14725.58
3562.238, 14777.36
3564.167, 14876.23
3566.095, 14914.86
3568.024, 14898.85
3569.952, 14931.71
3571.881, 14992.74
3573.809, 15064.85
3575.738, 15125.44
3577.666, 15156.06
3579.594, 15185.92
3581.523, 15218.18
3583.451, 15282.94
3585.380, 15365.74
3587.308, 15396.67
3589.237, 15432.31
3591.165, 15555.87
3593.094, 15640.12
3595.022, 15639.40
3596.951, 15654.11
3598.879, 15693.09
3600.808, 15706.35
3602.736, 15728.55
3604.665, 15834.28
3606.593, 15939.89
3608.521, 15998.86
3610.450, 16047.82
3612.378, 16096.14
3614.307, 16105.19
3616.235, 16104.15
3618.164, 16204.16
3620.092, 16318.31
3622.021, 16354.01
3623.949, 16385.71
3625.878, 16431.06
3627.806, 16497.40
3629.735, 16576.96
3631.663, 16580.06
3633.592, 16574.91
3635.520, 16674.15
3637.448, 16779.72
3639.377, 16844.23
3641.305, 16926.36
3643.234, 17034.68
3645.162, 17054.57
3647.091, 17042.49
3649.019, 17144.53
3650.948, 17230.20
3652.876, 17185.79
3654.805, 17218.91
3656.733, 17402.01
3658.662, 17491.26
3660.590, 17510.04
3662.519, 17535.54
3664.447, 17567.03
3666.375, 17594.76
3668.304, 17650.86
3670.232, 17759.72
3672.161, 17863.64
3674.089, 17951.69
3676.018, 17963.22
3677.946, 17969.60
3679.875, 18064.96
3681.803, 18152.43
3683.732, 18180.00
3685.660, 18239.97
3687.589, 18325.51
3689.517, 18382.62
3691.446, 18429.54
3693.374, 18483.27
3695.302, 18552.23
3697.231, 18664.13
3699.159, 18712.59
3701.088, 18711.37
3703.016, 18807.99
3704.945, 18942.81
3706.873, 19037.14
3708.802, 19117.54
3710.730, 19203.66
3712.659, 19238.27
3714.587, 19230.82
3716.516, 19298.48
3718.444, 19395.22
3720.373, 19446.72
3722.301, 19511.82
3724.229, 19635.03
3726.158, 19706.88
3728.086, 19732.72
3730.015, 19829.70
3731.943, 19945.28
3733.872, 20006.21
3735.800, 20046.49
3737.729, 20061.55
3739.657, 20124.48
3741.586, 20229.49
3743.514, 20302.10
3745.443, 20367.81
3747.371, 20478.21
3749.300, 20557.71
3751.228, 20561.92
3753.156, 20601.39
3755.085, 20673.51
3757.013, 20747.08
3758.942, 20806.53
3760.870, 20813.15
3762.799, 20841.88
3764.727, 20923.24
3766.656, 20982.73
3768.584, 21031.16
3770.513, 21120.90
3772.441, 21221.89
3774.370, 21306.20
3776.298, 21398.48
3778.227, 21503.52
3780.155, 21652.06
3782.083, 21801.04
3784.012, 21823.75
3785.940, 21832.41
3787.869, 21897.67
3789.797, 21968.72
3791.726, 22037.02
3793.654, 22136.89
3795.583, 22237.40
3797.511, 22267.46
3799.440, 22325.23
3801.368, 22459.40
3803.297, 22580.98
3805.225, 22680.63
3807.154, 22774.90
3809.082, 22840.89
3811.010, 22827.33
3812.939, 22839.31
3814.867, 22906.93
3816.796, 22922.22
3818.724, 22917.00
3820.653, 23047.08
3822.581, 23190.43
3824.510, 23244.26
3826.438, 23332.92
3828.367, 23466.24
3830.295, 23473.31
3832.224, 23448.43
3834.152, 23586.08
3836.081, 23721.21
3838.009, 23763.21
3839.938, 23842.46
3841.866, 23956.12
3843.794, 24067.58
3845.723, 24145.22
3847.651, 24137.26
3849.580, 24149.22
3851.508, 24208.18
3853.437, 24352.50
3855.365, 24528.69
3857.294, 24617.60
3859.222, 24700.14
3861.151, 24829.57
3863.079, 24897.58
3865.008, 24913.80
3866.936, 25011.37
3868.865, 25127.33
3870.793, 25181.10
3872.721, 25263.46
3874.650, 25410.16
3876.578, 25517.29
3878.507, 25604.32
3880.435, 25723.15
3882.364, 25807.94
3884.292, 25817.26
3886.221, 25880.36
3888.149, 25999.01
3890.078, 26107.02
3892.006, 26212.83
3893.935, 26340.42
3895.863, 26433.26
3897.792, 26480.62
3899.720, 26427.56
3901.648, 26366.12
3903.577, 26473.26
3905.505, 26601.66
3907.434, 26701.14
3909.362, 26762.67
3911.291, 26796.21
3913.219, 26878.03
3915.148, 26931.74
3917.076, 26857.86
3919.005, 26876.81
3920.933, 26998.15
3922.862, 27097.15
3924.790, 27174.18
3926.719, 27215.83
3928.647, 27251.06
3930.575, 27291.61
3932.504, 27360.19
3934.432, 27432.19
3936.361, 27469.01
3938.289, 27520.62
3940.218, 27594.08
3942.146, 27682.12
3944.075, 27785.09
3946.003, 27792.90
3947.932, 27782.76
3949.860, 27832.12
3951.789, 27929.27
3953.717, 28053.55
3955.646, 28063.00
3957.574, 28051.08
3959.502, 28120.91
3961.431, 28234.52
3963.359, 28368.98
3965.288, 28393.51
3967.216, 28386.66
3969.145, 28487.20
3971.073, 28588.83
3973.002, 28700.42
3974.930, 28782.82
3976.859, 28802.68
3978.787, 28885.32
3980.716, 29000.06
3982.644, 29128.17
3984.573, 29183.61
3986.501, 29124.24
3988.429, 29142.75
3990.358, 29253.87
3992.286, 29379.29
3994.215, 29425.50
3996.143, 29403.74
3998.072, 29447.41
4000.000, 29521.37
4001.929, 29561.35
4003.857, 29604.90
4005.786, 29637.25
4007.714, 29662.20
4009.643, 29737.10
4011.571, 29775.11
4013.500, 29799.21
4015.428, 29916.94
4017.356, 30040.06
4019.285, 30123.79
4021.213, 30223.46
4023.142, 30331.63
4025.070, 30421.12
4026.999, 30560.01
4028.927, 30739.25
4030.856, 30892.60
4032.784, 31114.73
4034.713, 31496.84
4036.641, 31938.28
4038.570, 32308.95
4040.498, 32747.02
4042.427, 33310.79
4044.355, 33902.74
4046.283, 34604.51
4048.212, 35460.53
4050.140, 36483.89
4052.069, 37661.04
4053.997, 38979.18
4055.926, 40506.33
4057.854, 42308.63
4059.783, 44378.46
4061.711, 46589.41
4063.640, 48994.11
4065.568, 51570.13
4067.497, 54133.94
4069.425, 56708.87
4071.354, 58914.57
4073.282, 60586.98
4075.210, 61421.87
4077.139, 61379.21
4079.067, 60363.56
4080.996, 58736.82
4082.924, 56661.79
4084.853, 54366.21
4086.781, 52044.37
4088.710, 49868.60
4090.638, 47871.73
4092.567, 46013.77
4094.495, 44335.24
4096.424, 42914.11
4098.352, 41733.83
4100.280, 40796.96
4102.209, 40070.94
4104.138, 39318.52
4106.066, 38660.24
4107.994, 38197.11
4109.923, 37845.99
4111.852, 37590.77
4113.780, 37444.27
4115.708, 37402.34
4117.637, 37463.17
4119.565, 37657.09
4121.494, 37987.89
4123.422, 38436.85
4125.351, 38988.23
4127.279, 39602.92
4129.208, 40393.51
4131.136, 41392.01
4133.064, 42647.76
4134.993, 44209.50
4136.921, 46047.54
4138.850, 48307.12
4140.778, 51053.47
4142.707, 54102.25
4144.635, 57761.57
4146.563, 62286.86
4148.492, 67621.88
4150.421, 73754.04
4152.349, 80724.44
4154.277, 88329.55
4156.206, 96818.98
4158.135, 104622.8
4160.063, 111290.8
4161.991, 115482.3
4163.920, 116797.3
4165.849, 114677.6
4167.777, 109957.7
4169.705, 102981.6
4171.634, 95397.59
4173.563, 87846.49
4175.491, 80655.25
4177.419, 74417.14
4179.348, 69250.46
4181.276, 64755.14
4183.205, 60890.56
4185.133, 57748.18
4187.062, 55141.52
4188.990, 53057.48
4190.918, 51352.29
4192.847, 49903.58
4194.775, 48762.35
4196.704, 47686.13
4198.632, 46579.83
4200.561, 45859.91
4202.489, 45288.51
4204.418, 44620.28
4206.346, 44074.43
4208.274, 43693.18
4210.203, 43411.18
4212.132, 43147.07
4214.060, 42771.52
4215.988, 42486.91
4217.917, 42338.55
4219.846, 42167.18
4221.774, 42052.46
4223.702, 42152.95
4225.631, 42195.32
4227.560, 42153.52
4229.488, 42125.55
4231.416, 42122.70
4233.345, 42174.80
4235.273, 42142.37
4237.202, 42057.99
4239.130, 42137.86
4241.059, 42244.86
4242.987, 42317.86
4244.916, 42304.77
4246.844, 42235.19
4248.772, 42188.86
4250.701, 42218.04
4252.629, 42399.79
4254.558, 42438.03
4256.486, 42436.66
4258.415, 42649.80
4260.343, 42818.86
4262.271, 42847.68
4264.200, 42863.29
4266.129, 42894.30
4268.057, 43025.80
4269.985, 43063.24
4271.914, 42967.82
4273.843, 42946.54
4275.771, 42988.88
4277.699, 43139.81
4279.628, 43187.91
4281.557, 43131.21
4283.485, 43140.78
4285.413, 43134.80
4287.342, 43011.01
4289.271, 43001.00
4291.199, 43078.54
4293.127, 43128.40
4295.056, 43198.69
4296.984, 43326.65
4298.913, 43396.93
4300.841, 43445.38
4302.770, 43536.13
4304.698, 43638.64
4306.626, 43745.96
4308.555, 43846.82
4310.483, 43977.51
4312.412, 44187.11
4314.340, 44427.08
4316.269, 44673.00
4318.197, 44756.24
4320.126, 44853.69
4322.054, 45073.51
4323.982, 45325.77
4325.911, 45569.71
4327.840, 45704.55
4329.768, 45827.75
4331.696, 45968.55
4333.625, 46199.15
4335.554, 46408.71
4337.482, 46402.14
4339.410, 46537.49
4341.339, 46827.89
4343.268, 46877.14
4345.196, 46980.59
4347.124, 47373.39
4349.053, 47612.00
4350.981, 47716.43
4352.910, 47853.95
4354.838, 47943.58
4356.767, 47956.79
4358.695, 48066.98
4360.624, 48253.88
4362.552, 48583.38
4364.480, 48646.45
4366.409, 48433.88
4368.337, 48342.71
4370.266, 48323.78
4372.194, 48376.47
4374.123, 48361.98
4376.051, 48321.96
4377.979, 48389.25
4379.908, 48414.91
4381.837, 48341.99
4383.765, 48419.45
4385.693, 48507.52
4387.622, 48449.18
4389.551, 48425.17
4391.479, 48444.96
4393.407, 48413.08
4395.336, 48497.88
4397.265, 48787.73
4399.193, 48816.30
4401.121, 48708.23
4403.050, 48638.97
4404.979, 48616.96
4406.907, 48618.61
4408.835, 48468.21
4410.764, 48351.50
4412.692, 48396.44
4414.621, 48421.60
4416.549, 48385.32
4418.478, 48181.63
4420.406, 48058.95
4422.334, 48074.91
4424.263, 48051.31
4426.191, 48021.56
4428.120, 48024.41
4430.048, 47967.14
4431.977, 47882.46
4433.905, 47865.38
4435.834, 47868.37
4437.762, 47877.75
4439.690, 47888.44
4441.619, 47839.56
4443.548, 47643.08
4445.476, 47619.81
4447.404, 47731.38
4449.333, 47820.95
4451.262, 47889.44
4453.190, 47933.20
4455.118, 47791.74
4457.047, 47674.43
4458.976, 47831.44
4460.904, 47905.91
4462.832, 47904.25
4464.761, 47911.04
4466.689, 47913.75
4468.618, 47910.64
4470.546, 47816.63
4472.475, 47713.80
4474.403, 47659.38
4476.332, 47652.15
4478.260, 47684.63
4480.188, 47781.50
4482.117, 47798.25
4484.045, 47719.80
4485.974, 47792.81
4487.902, 47874.75
4489.831, 47812.89
4491.759, 47889.23
4493.688, 48020.13
4495.616, 47996.95
4497.545, 48018.65
4499.473, 48110.04
4501.401, 48092.09
4503.330, 48041.68
4505.259, 47992.95
4507.187, 48005.31
4509.115, 48060.93
4511.044, 48174.66
4512.973, 48169.85
4514.901, 48065.96
4516.829, 48029.78
4518.758, 48036.66
4520.687, 48081.69
4522.615, 48130.47
4524.543, 48177.20
4526.472, 48211.66
4528.400, 48276.04
4530.329, 48348.91
4532.257, 48360.89
4534.186, 48388.83
4536.114, 48440.89
4538.042, 48413.93
4539.971, 48423.46
4541.899, 48598.66
4543.828, 48523.47
4545.756, 48380.51
4547.685, 48471.66
4549.613, 48478.66
4551.542, 48402.70
4553.470, 48404.45
4555.398, 48439.02
4557.327, 48486.95
4559.256, 48475.82
4561.184, 48460.33
4563.112, 48481.06
4565.041, 48540.52
4566.970, 48594.17
4568.898, 48547.05
4570.826, 48523.39
4572.755, 48531.64
4574.684, 48479.10
4576.612, 48545.23
4578.540, 48770.86
4580.469, 48715.66
4582.397, 48622.54
4584.326, 48731.48
4586.254, 48677.57
4588.183, 48568.64
4590.111, 48652.08
4592.040, 48661.57
4593.968, 48610.11
4595.896, 48794.13
4597.825, 48890.53
4599.753, 48815.02
4601.682, 48805.80
4603.610, 48830.14
4605.539, 48871.27
4607.467, 48849.65
4609.396, 48832.16
4611.324, 48942.29
4613.253, 48988.25
4615.181, 48988.22
4617.109, 49102.77
4619.038, 49126.07
4620.967, 49041.75
4622.895, 49085.69
4624.823, 49161.21
4626.752, 49232.87
4628.681, 49157.27
4630.609, 49049.02
4632.537, 49002.02
4634.466, 49078.23
4636.395, 49190.28
4638.323, 49166.36
4640.251, 49170.10
4642.180, 49209.64
4644.108, 49205.90
4646.037, 49200.20
4647.965, 49206.43
4649.894, 49291.37
4651.822, 49399.94
4653.750, 49506.89
4655.679, 49449.73
4657.607, 49389.91
4659.536, 49547.64
4661.464, 49535.85
4663.393, 49443.44
4665.321, 49455.94
4667.250, 49557.34
4669.178, 49684.91
4671.106, 49598.32
4673.035, 49548.28
4674.964, 49594.58
4676.892, 49695.49
4678.820, 49712.45
4680.749, 49546.95
4682.678, 49665.40
4684.606, 49842.26
4686.534, 49921.88
4688.463, 49973.38
4690.392, 49974.84
4692.320, 49819.93
4694.248, 49915.72
4696.177, 50126.71
4698.105, 50099.35
4700.034, 49991.73
4701.962, 49874.28
4703.891, 49928.23
4705.819, 49898.00
4707.748, 49741.28
4709.676, 49802.83
4711.604, 49897.38
4713.533, 49944.25
4715.461, 50013.11
4717.390, 50063.41
4719.318, 50070.55
4721.247, 50011.83
4723.175, 49956.27
4725.104, 49982.75
4727.032, 50013.59
4728.961, 50053.79
4730.889, 50138.88
4732.817, 50132.68
4734.746, 50069.17
4736.675, 50030.07
4738.603, 50103.62
4740.531, 50248.62
4742.460, 50210.48
4744.389, 50201.32
4746.317, 50258.25
4748.245, 50268.13
4750.174, 50311.52
4752.103, 50422.00
4754.031, 50363.78
4755.959, 50340.06
4757.888, 50450.01
4759.816, 50457.89
4761.745, 50466.52
4763.673, 50591.97
4765.602, 50580.26
4767.530, 50536.58
4769.458, 50574.56
4771.387, 50530.85
4773.315, 50502.18
4775.244, 50661.23
4777.172, 50779.45
4779.101, 50826.99
4781.029, 50760.31
4782.958, 50762.83
4784.886, 50810.55
4786.814, 50778.80
4788.743, 50782.39
4790.672, 50803.98
4792.600, 50659.23
4794.528, 50629.55
4796.457, 50729.10
4798.386, 50709.36
4800.314, 50726.26
4802.242, 50808.84
4804.171, 50810.23
4806.100, 50743.16
4808.028, 50624.30
4809.956, 50565.24
4811.885, 50582.41
4813.813, 50681.82
4815.742, 50634.95
4817.670, 50594.21
4819.599, 50638.47
4821.527, 50702.00
4823.456, 50741.36
4825.384, 50719.62
4827.313, 50828.95
4829.241, 50895.51
4831.169, 50781.20
4833.098, 50862.78
4835.026, 51004.63
4836.955, 51079.23
4838.883, 51117.11
4840.812, 51158.76
4842.740, 51246.39
4844.669, 51272.35
4846.597, 51290.88
4848.525, 51381.45
4850.454, 51442.13
4852.383, 51467.01
4854.311, 51451.76
4856.239, 51423.27
4858.168, 51404.59
4860.097, 51449.39
4862.025, 51387.59
4863.953, 51273.22
4865.882, 51184.76
4867.811, 51200.39
4869.739, 51198.34
4871.667, 50910.03
4873.596, 50856.91
4875.524, 50920.73
4877.453, 50859.78
4879.381, 50708.59
4881.310, 50587.45
4883.238, 50775.95
4885.167, 50679.93
4887.095, 50435.98
4889.023, 50330.54
4890.952, 50372.63
4892.880, 50435.73
4894.809, 50275.13
4896.737, 50268.14
4898.666, 50308.80
4900.594, 50135.77
4902.522, 49996.85
4904.451, 49921.64
4906.380, 49908.23
4908.308, 50033.41
4910.236, 50131.83
4912.165, 49882.15
4914.094, 49789.77
4916.022, 49826.17
4917.950, 49890.54
4919.879, 50009.10
4921.808, 50093.15
4923.736, 50018.06
4925.664, 49768.73
4927.593, 49601.56
4929.521, 49895.64
4931.450, 49933.46
4933.378, 49840.52
4935.307, 49828.41
4937.235, 49796.28
4939.164, 49772.38
4941.092, 49799.12
4943.021, 49835.09
4944.949, 49828.09
4946.877, 49726.45
4948.806, 49763.06
4950.734, 49798.58
4952.663, 49651.38
4954.591, 49811.60
4956.520, 49992.69
4958.448, 50005.95
4960.377, 49829.39
4962.305, 49705.28
4964.233, 49777.25
4966.162, 49858.26
4968.091, 49824.36
4970.019, 49619.91
4971.947, 49724.27
4973.876, 49761.46
4975.805, 49616.27
4977.733, 49617.71
4979.661, 49580.19
4981.590, 49462.52
4983.519, 49519.13
4985.447, 49569.50
4987.375, 49576.32
4989.304, 49614.21
4991.232, 49589.94
4993.161, 49535.77
4995.089, 49671.40
4997.018, 49630.67
4998.946, 49471.25
5000.875, 49471.79
5002.803, 49448.79
5004.731, 49420.70
5006.660, 49469.00
5008.588, 49516.64
5010.517, 49572.43
5012.445, 49685.41
5014.374, 49532.25
5016.302, 49391.83
5018.230, 49549.48
5020.159, 49508.70
5022.088, 49472.73
5024.016, 49640.09
5025.944, 49602.80
5027.873, 49565.17
5029.802, 49611.79
5031.730, 49566.59
5033.658, 49552.97
5035.587, 49592.21
5037.516, 49452.09
5039.444, 49394.30
5041.372, 49445.38
5043.301, 49435.14
5045.229, 49413.46
5047.158, 49383.87
5049.086, 49307.01
5051.015, 49344.41
5052.943, 49393.39
5054.872, 49227.83
5056.800, 49248.16
5058.729, 49363.02
5060.657, 49462.86
5062.585, 49368.54
5064.514, 49300.39
5066.442, 49430.84
5068.371, 49280.67
5070.299, 49158.36
5072.228, 49188.99
5074.156, 49209.15
5076.085, 49210.15
5078.013, 49192.11
5079.941, 49145.02
5081.870, 49160.11
5083.799, 49212.52
5085.727, 49197.93
5087.655, 49237.28
5089.584, 49286.63
5091.513, 49273.15
5093.441, 49235.52
5095.369, 49142.76
5097.298, 48929.39
5099.227, 49039.95
5101.155, 49139.44
5103.083, 49071.16
5105.012, 48921.39
5106.940, 48834.05
5108.869, 48823.47
5110.797, 48781.83
5112.726, 48743.77
5114.654, 48709.45
5116.583, 48682.87
5118.511, 48532.53
5120.439, 48402.91
5122.368, 48474.64
5124.296, 48503.73
5126.225, 48486.30
5128.153, 48433.18
5130.082, 48311.45
5132.010, 48233.80
5133.938, 48233.83
5135.867, 48261.30
5137.796, 48232.96
5139.724, 48145.14
5141.652, 47947.84
5143.581, 48138.21
5145.510, 48371.44
5147.438, 48054.32
5149.366, 48158.05
5151.295, 48269.36
5153.224, 48108.50
5155.152, 48150.37
5157.080, 48168.80
5159.009, 48095.44
5160.938, 48090.05
5162.866, 48105.66
5164.794, 48111.69
5166.723, 48062.34
5168.651, 48022.65
5170.580, 48014.77
5172.508, 48057.26
5174.437, 47968.31
5176.365, 47881.49
5178.293, 47873.93
5180.222, 47819.85
5182.150, 47759.66
5184.079, 47716.47
5186.007, 47735.61
5187.936, 47711.29
5189.864, 47641.09
5191.793, 47517.14
5193.721, 47592.11
5195.649, 47625.88
5197.578, 47440.93
5199.507, 47458.27
5201.435, 47499.13
5203.363, 47494.35
5205.292, 47388.75
5207.221, 47365.59
5209.149, 47395.32
5211.077, 47425.49
5213.006, 47234.82
5214.935, 47084.78
5216.863, 47162.25
5218.791, 47113.80
5220.720, 47126.57
5222.648, 47197.56
5224.577, 47029.41
5226.505, 46990.60
5228.434, 47047.71
5230.362, 47096.57
5232.291, 46962.34
5234.219, 46818.84
5236.147, 46776.35
5238.076, 46690.88
5240.004, 46666.50
5241.933, 46714.25
5243.861, 46827.51
5245.790, 46694.19
5247.718, 46469.51
5249.646, 46360.93
5251.575, 46503.60
5253.504, 46575.86
5255.432, 46439.22
5257.360, 46273.08
5259.289, 46236.43
5261.218, 46284.94
5263.146, 46254.98
5265.074, 46263.25
5267.003, 46193.19
5268.932, 45914.18
5270.860, 46115.34
5272.788, 46251.69
5274.717, 46161.74
5276.646, 45903.85
5278.574, 45938.92
5280.502, 46092.09
5282.431, 46088.14
5284.359, 45912.90
5286.288, 45735.72
5288.216, 45641.98
5290.145, 45623.90
5292.073, 45626.62
5294.001, 45607.16
5295.930, 45504.98
5297.858, 45452.93
5299.787, 45468.80
5301.715, 45551.64
5303.644, 45498.35
5305.572, 45346.88
5307.501, 45198.94
5309.429, 45298.33
5311.357, 45172.46
5313.286, 45049.77
5315.215, 45146.55
5317.143, 45103.02
5319.071, 45065.50
5321.000, 45056.74
5322.929, 44970.13
5324.857, 44793.23
5326.785, 44709.63
5328.714, 44889.34
5330.643, 44775.26
5332.571, 44636.19
5334.499, 44585.05
5336.428, 44672.10
5338.356, 44588.66
5340.285, 44466.96
5342.213, 44491.42
5344.142, 44448.80
5346.070, 44377.39
5347.999, 44311.04
5349.927, 44328.79
5351.855, 44248.09
5353.784, 44135.81
5355.712, 44082.85
5357.641, 44017.27
5359.569, 43991.75
5361.498, 43994.29
5363.426, 43905.50
5365.354, 43829.55
5367.283, 43766.95
5369.212, 43705.22
5371.140, 43611.60
5373.068, 43576.35
5374.997, 43595.16
5376.926, 43588.64
5378.854, 43576.65
5380.782, 43525.09
5382.711, 43405.27
5384.640, 43446.32
5386.568, 43383.38
5388.496, 43229.92
5390.425, 43166.67
5392.354, 43069.09
5394.282, 43048.46
5396.210, 43129.46
5398.139, 42941.34
5400.067, 42900.43
5401.996, 42951.06
5403.924, 42865.23
5405.853, 42856.65
5407.781, 42766.50
5409.709, 42566.52
5411.638, 42440.77
5413.566, 42487.63
5415.495, 42588.56
5417.423, 42609.06
5419.352, 42373.21
5421.280, 42194.44
5423.209, 42161.38
5425.137, 42231.90
5427.065, 42420.80
5428.994, 42421.06
5430.923, 42095.44
5432.851, 42138.65
5434.779, 42094.23
5436.708, 42007.32
5438.637, 42069.79
5440.565, 41888.61
5442.493, 41805.30
5444.422, 41861.93
5446.351, 41646.96
5448.279, 41673.29
5450.207, 41745.65
5452.136, 41678.35
5454.064, 41646.82
5455.993, 41594.05
5457.921, 41524.02
5459.850, 41462.43
5461.778, 41469.64
5463.707, 41388.63
5465.635, 41211.92
5467.563, 41142.74
5469.492, 41069.02
5471.420, 41037.63
5473.349, 41090.37
5475.277, 41094.21
5477.206, 40986.39
5479.134, 40840.31
5481.063, 40776.00
5482.991, 40714.09
5484.920, 40660.92
5486.848, 40603.55
5488.776, 40474.02
5490.705, 40556.45
5492.634, 40604.51
5494.562, 40475.71
5496.490, 40453.61
5498.419, 40326.66
5500.348, 40246.71
5502.276, 40447.05
5504.204, 40250.16
5506.133, 40131.77
5508.062, 40126.81
5509.990, 40039.41
5511.918, 40049.50
5513.847, 40024.46
5515.775, 39927.20
5517.704, 39861.43
5519.632, 39773.47
5521.561, 39644.32
5523.489, 39496.52
5525.417, 39766.64
5527.346, 39823.34
5529.274, 39652.91
5531.203, 39375.28
5533.131, 39272.65
5535.060, 39271.53
5536.988, 39317.06
5538.917, 39364.30
5540.845, 39386.16
5542.773, 39273.60
5544.702, 39087.64
5546.631, 39087.95
5548.559, 39125.38
5550.487, 39084.38
5552.416, 38942.23
5554.345, 38811.43
5556.273, 38840.11
5558.201, 38933.70
5560.130, 38973.52
5562.059, 38612.73
5563.987, 38574.04
5565.915, 38663.86
5567.844, 38579.67
5569.772, 38471.03
5571.701, 38220.29
5573.629, 38057.40
5575.558, 38313.96
5577.486, 38206.32
5579.415, 38164.06
5581.343, 38200.23
5583.271, 38068.50
5585.200, 38016.76
5587.128, 37949.05
5589.057, 37875.75
5590.985, 37912.46
5592.914, 37785.02
5594.842, 37761.20
5596.771, 37850.96
5598.699, 37696.02
5600.628, 37670.22
5602.556, 37579.59
5604.484, 37377.43
5606.413, 37425.83
5608.342, 37292.50
5610.270, 37244.36
5612.198, 37392.46
5614.127, 37273.56
5616.056, 37271.36
5617.984, 37219.11
5619.912, 37014.15
5621.841, 37002.74
5623.770, 36995.36
5625.698, 36962.79
5627.626, 36905.13
5629.555, 36797.86
5631.483, 36647.59
5633.412, 36593.24
5635.340, 36713.73
5637.269, 36711.51
5639.197, 36559.81
5641.125, 36448.64
5643.054, 36523.15
5644.982, 36355.80
5646.911, 36167.95
5648.839, 36116.59
5650.768, 36270.37
5652.696, 36263.60
5654.625, 36289.05
5656.553, 36230.67
5658.481, 35988.39
5660.410, 35887.63
5662.339, 35799.28
5664.267, 35811.92
5666.195, 35976.94
5668.124, 35785.99
5670.053, 35697.04
5671.981, 35665.94
5673.909, 35579.72
5675.838, 35459.96
5677.767, 35517.34
5679.695, 35556.63
5681.623, 35413.54
5683.552, 35331.69
5685.480, 35181.32
5687.409, 35081.95
5689.337, 35097.63
5691.266, 34977.81
5693.194, 34953.57
5695.123, 34980.38
5697.051, 34987.13
5698.979, 34903.76
5700.908, 34814.05
5702.836, 34758.50
5704.765, 34753.48
5706.693, 34843.21
5708.622, 34677.37
5710.550, 34527.13
5712.479, 34494.44
5714.407, 34407.17
5716.336, 34392.03
5718.264, 34394.44
5720.192, 34367.66
5722.121, 34267.93
5724.050, 34210.89
5725.978, 34084.13
5727.906, 33993.68
5729.835, 34159.75
5731.764, 33927.98
5733.692, 33870.22
5735.620, 33915.21
5737.549, 33783.68
5739.478, 33832.09
5741.406, 33663.34
5743.334, 33509.79
5745.263, 33623.66
5747.191, 33449.44
5749.120, 33457.41
5751.048, 33503.02
5752.977, 33424.68
5754.905, 33198.85
5756.833, 33101.75
5758.762, 33107.64
5760.690, 33124.68
5762.619, 32961.54
5764.547, 33053.60
5766.476, 33059.68
5768.404, 32926.92
5770.333, 32829.78
5772.261, 32780.20
5774.189, 32715.87
5776.118, 32672.71
5778.047, 32692.55
5779.975, 32506.12
5781.903, 32450.18
5783.832, 32405.00
5785.761, 32273.27
5787.689, 32408.50
5789.617, 32349.94
5791.546, 32209.34
5793.475, 32100.00
5795.403, 32047.22
5797.331, 32208.29
5799.260, 32239.19
5801.188, 32074.07
5803.117, 31790.66
5805.045, 31822.94
5806.974, 31817.75
5808.902, 31746.09
5810.831, 31671.68
5812.759, 31544.75
5814.688, 31594.34
5816.616, 31585.20
5818.544, 31431.29
5820.473, 31380.17
5822.401, 31263.33
5824.330, 31175.51
5826.258, 31137.90
5828.187, 31113.97
5830.115, 31060.23
5832.044, 31002.22
5833.972, 30960.68
5835.900, 30943.04
5837.829, 30930.12
5839.758, 30911.21
5841.686, 30860.46
5843.614, 30790.43
5845.543, 30768.70
5847.472, 30730.54
5849.400, 30678.76
5851.328, 30588.17
5853.257, 30431.32
5855.186, 30457.55
5857.114, 30329.66
5859.042, 30207.55
5860.971, 30200.42
5862.899, 30207.19
5864.828, 30220.46
5866.756, 30187.34
5868.685, 30109.24
5870.613, 30016.54
5872.542, 29985.09
5874.470, 29943.87
5876.398, 29886.89
5878.327, 29827.47
5880.255, 29786.13
5882.184, 29777.06
5884.112, 29767.72
5886.041, 29730.80
5887.969, 29647.41
5889.897, 29477.05
5891.826, 29487.81
5893.755, 29457.40
5895.683, 29293.46
5897.611, 29309.60
5899.540, 29363.42
5901.469, 29271.35
5903.397, 29093.26
5905.325, 28982.84
5907.254, 29009.17
5909.183, 29054.62
5911.111, 28999.90
5913.039, 28852.94
5914.968, 28780.65
5916.896, 28946.57
5918.825, 28843.70
5920.753, 28663.90
5922.682, 28713.21
5924.610, 28515.66
5926.539, 28485.80
5928.467, 28479.41
5930.396, 28407.13
5932.324, 28257.72
5934.252, 28260.86
5936.181, 28244.34
5938.109, 28178.57
5940.038, 28105.00
5941.966, 28164.66
5943.895, 28089.47
5945.823, 28082.50
5947.752, 28074.86
5949.680, 27908.76
5951.608, 27741.30
5953.537, 27654.07
5955.466, 27657.05
5957.394, 27721.54
5959.322, 27800.16
5961.251, 27506.54
5963.180, 27336.25
5965.108, 27402.88
5967.036, 27563.30
5968.965, 27428.40
5970.894, 27365.58
5972.822, 27220.55
5974.750, 27113.07
5976.679, 27158.90
5978.607, 27126.16
5980.536, 27014.94
5982.464, 26987.41
5984.393, 26986.42
5986.321, 26879.94
5988.250, 26756.19
5990.178, 26826.84
5992.106, 26849.84
5994.035, 26753.21
5995.963, 26653.20
5997.892, 26557.56
5999.820, 26535.72
6001.749, 26429.68
6003.677, 26261.39
6005.605, 26286.58
6007.534, 26304.81
6009.463, 26219.95
6011.391, 26163.31
6013.319, 26184.44
6015.248, 26123.55
6017.177, 26181.90
6019.105, 26070.42
6021.033, 25932.78
6022.962, 25917.20
6024.891, 25902.85
6026.819, 25842.18
6028.747, 25799.96
6030.676, 25728.45
6032.604, 25601.27
6034.533, 25572.78
6036.461, 25547.34
6038.390, 25609.54
6040.318, 25595.78
6042.247, 25381.58
6044.175, 25220.79
6046.104, 25254.57
6048.032, 25271.96
6049.960, 25215.23
6051.889, 25130.04
6053.817, 25131.03
6055.746, 25063.36
6057.674, 24997.62
6059.603, 24919.76
6061.531, 24809.54
6063.460, 24791.31
6065.388, 24885.72
6067.316, 24803.86
6069.245, 24614.85
6071.174, 24505.19
6073.102, 24617.22
6075.030, 24542.30
6076.959, 24457.12
6078.888, 24382.33
6080.816, 24288.79
6082.744, 24255.90
6084.673, 24164.22
6086.602, 24168.93
6088.530, 24145.01
6090.458, 24011.26
6092.387, 23963.03
6094.315, 23927.68
6096.244, 23922.91
6098.172, 23882.69
6100.101, 23774.40
6102.029, 23635.97
6103.958, 23688.64
6105.886, 23637.68
6107.814, 23583.26
6109.743, 23579.25
6111.671, 23537.59
6113.600, 23472.59
6115.528, 23415.24
6117.457, 23371.10
6119.385, 23331.01
6121.313, 23287.32
6123.242, 23307.98
6125.171, 23199.75
6127.099, 23106.39
6129.027, 23047.92
6130.956, 22970.71
6132.885, 22856.55
6134.813, 22811.09
6136.741, 22873.58
6138.670, 22864.87
6140.599, 22732.44
6142.527, 22727.75
6144.455, 22558.36
6146.384, 22430.75
6148.313, 22449.33
6150.241, 22474.12
6152.169, 22272.36
6154.098, 22267.18
6156.026, 22238.54
6157.955, 22192.19
6159.883, 22123.45
6161.812, 22033.27
6163.740, 22031.92
6165.668, 21980.74
6167.597, 21985.96
6169.525, 22014.02
6171.454, 21957.07
6173.382, 21726.55
6175.311, 21779.24
6177.239, 21735.45
6179.168, 21645.13
6181.096, 21556.89
6183.024, 21469.84
6184.953, 21515.67
6186.882, 21494.47
6188.810, 21374.95
6190.738, 21323.07
6192.667, 21365.70
6194.596, 21228.45
6196.524, 21199.19
6198.452, 21197.31
6200.381, 21158.12
6202.310, 21062.77
6204.238, 20938.22
6206.166, 20971.16
6208.095, 20840.03
6210.023, 20867.38
6211.952, 20935.16
6213.880, 20885.31
6215.809, 20744.32
6217.737, 20743.39
6219.666, 20790.78
6221.594, 20678.88
6223.522, 20527.48
6225.451, 20522.35
6227.379, 20511.26
6229.308, 20389.15
6231.236, 20384.85
6233.165, 20400.16
6235.093, 20318.03
6237.021, 20126.08
6238.950, 20201.72
6240.879, 20136.70
6242.807, 20086.09
6244.735, 19989.65
6246.664, 19878.11
6248.593, 20013.40
6250.521, 19991.30
6252.449, 19955.28
6254.378, 19821.90
6256.307, 19726.44
6258.235, 19734.81
6260.163, 19575.71
6262.092, 19657.55
6264.021, 19609.86
6265.949, 19487.58
6267.877, 19423.31
6269.806, 19439.31
6271.734, 19352.97
6273.663, 19315.08
6275.591, 19278.88
6277.520, 19248.42
6279.448, 19235.36
6281.376, 19218.83
6283.305, 19086.03
6285.233, 19018.83
6287.162, 18981.28
6289.090, 18917.15
6291.019, 18833.85
6292.947, 18773.60
6294.876, 18731.08
6296.804, 18618.25
6298.732, 18559.35
6300.661, 18560.07
6302.590, 18589.01
6304.518, 18614.40
6306.446, 18507.38
6308.375, 18445.27
6310.304, 18427.39
6312.232, 18410.74
6314.160, 18336.19
6316.089, 18189.46
6318.018, 18109.27
6319.946, 18181.64
6321.874, 18249.59
6323.803, 18186.64
6325.731, 18034.90
6327.660, 17925.80
6329.588, 17932.60
6331.517, 17898.29
6333.445, 17865.51
6335.374, 17918.73
6337.302, 17885.31
6339.230, 17685.20
6341.159, 17740.06
6343.087, 17691.57
6345.016, 17568.52
6346.944, 17591.39
6348.873, 17604.10
6350.801, 17478.70
6352.729, 17408.63
6354.658, 17433.72
6356.587, 17330.31
6358.515, 17279.77
6360.443, 17259.67
6362.372, 17222.04
6364.301, 17191.47
6366.229, 17122.32
6368.157, 17165.26
6370.086, 17138.38
6372.015, 17063.42
6373.943, 17004.80
6375.871, 16962.06
6377.800, 16848.27
6379.729, 16824.78
6381.657, 16936.53
6383.585, 16871.82
6385.514, 16766.05
6387.442, 16744.51
6389.371, 16649.02
6391.299, 16656.81
6393.228, 16530.06
6395.156, 16406.10
6397.084, 16415.99
6399.013, 16453.55
6400.941, 16381.24
6402.870, 16423.55
6404.798, 16289.67
6406.727, 16310.78
6408.655, 16239.02
6410.584, 16183.37
6412.512, 16198.16
6414.440, 16104.31
6416.369, 16080.41
6418.298, 15953.40
6420.226, 15976.55
6422.154, 15934.36
6424.083, 15860.19
6426.012, 15860.54
6427.940, 15795.36
6429.868, 15837.08
6431.797, 15828.46
6433.726, 15832.92
6435.654, 15830.09
6437.582, 15700.83
6439.511, 15446.43
6441.439, 15521.14
6443.368, 15564.75
6445.296, 15561.45
6447.225, 15424.00
6449.153, 15360.87
6451.082, 15355.71
6453.010, 15250.68
6454.938, 15298.35
6456.867, 15252.91
6458.795, 15200.81
6460.724, 15206.53
6462.652, 15178.70
6464.581, 15052.80
6466.509, 14905.71
6468.438, 15015.98
6470.366, 14967.37
6472.295, 14923.34
6474.223, 14924.15
6476.151, 14946.31
6478.080, 14934.82
6480.009, 14849.11
6481.937, 14723.51
6483.865, 14748.76
6485.794, 14670.87
6487.723, 14588.93
6489.651, 14578.72
6491.579, 14593.34
6493.508, 14548.70
6495.437, 14462.04
6497.365, 14572.14
6499.293, 14412.70
6501.222, 14329.27
6503.150, 14381.96
6505.079, 14352.70
6507.007, 14190.04
6508.936, 14269.32
6510.864, 14152.52
6512.792, 14190.47
6514.721, 14155.45
6516.649, 14104.82
6518.578, 14096.44
6520.506, 14093.35
6522.435, 14033.61
6524.363, 13934.41
6526.292, 13939.02
6528.220, 13919.48
6530.148, 13850.33
6532.077, 13863.48
6534.006, 13882.15
6535.934, 13779.84
6537.862, 13801.90
6539.791, 13676.44
6541.720, 13667.72
6543.648, 13611.07
6545.576, 13557.13
6547.505, 13544.35
6549.434, 13562.66
6551.362, 13554.66
6553.290, 13341.73
6555.219, 13379.31
6557.147, 13405.65
6559.076, 13391.29
6561.004, 13282.19
6562.933, 13200.17
6564.861, 13250.82
6566.790, 13316.50
6568.718, 13212.61
6570.646, 13107.32
6572.575, 13060.00
6574.503, 13145.59
6576.432, 13086.63
6578.360, 12952.39
##END=



