##NAMES=Vivianite
##RRUFFID=R050464
##IDEAL CHEMISTRY=Fe^2+^_3_(PO_4_)_2_&#183;8H_2_O
##LOCALITY=Siglo XX mine, Llallagua, Potosi, Bolivia
##OWNER=RRUFF
##SOURCE=University of Arizona Mineral Museum
##DESCRIPTION=Bluish green elongated prismatic crystals
##STATUS=The identification of this mineral is confirmed by single-crystal X-ray diffraction and chemical analysis.
##URL=rruff.info/R050464
##MEASURED CHEMISTRY=Fe^2+^_3.00_(P_1.00_O_4_)_2_Â·8H_2_O
86.91748, 19.37040
88.84595, 19.66634
90.77441, 20.08706
92.70288, 21.50781
94.63135, 22.80766
96.55981, 25.53581
98.48828, 31.03995
100.4167, 39.92310
102.3452, 51.47814
104.2737, 65.31824
106.2021, 81.09007
108.1306, 100.5574
110.0591, 122.0853
111.9875, 147.2096
113.9160, 183.0042
115.8445, 234.1228
117.7729, 291.5202
119.7014, 354.3964
121.6299, 425.6403
123.5583, 488.5742
125.4868, 538.3867
127.4153, 576.3630
129.3438, 612.3275
131.2722, 625.9084
133.2007, 622.8948
135.1292, 623.4008
137.0576, 629.9402
138.9861, 635.4673
140.9146, 639.6080
142.8430, 642.7103
144.7715, 645.2704
146.7000, 642.4073
148.6284, 642.6666
150.5569, 651.4229
152.4854, 667.8901
154.4138, 691.1578
156.3423, 726.6628
158.2708, 771.1820
160.1992, 807.4574
162.1277, 833.6732
164.0562, 853.5775
165.9846, 868.2012
167.9131, 876.1664
169.8416, 884.1312
171.7700, 890.8163
173.6985, 895.0795
175.6270, 912.4183
177.5554, 934.0461
179.4839, 974.2346
181.4124, 1038.305
183.3408, 1132.046
185.2693, 1244.237
187.1978, 1383.839
189.1262, 1550.299
191.0547, 1694.370
192.9832, 1828.245
194.9116, 1928.147
196.8401, 1973.542
198.7686, 1935.325
200.6970, 1870.453
202.6255, 1762.270
204.5540, 1618.743
206.4824, 1492.861
208.4109, 1387.656
210.3394, 1303.298
212.2678, 1250.332
214.1963, 1227.998
216.1248, 1231.376
218.0532, 1266.388
219.9817, 1330.779
221.9102, 1400.212
223.8386, 1490.612
225.7671, 1576.327
227.6956, 1632.679
229.6240, 1660.135
231.5525, 1665.304
233.4810, 1652.007
235.4094, 1618.906
237.3379, 1565.049
239.2664, 1483.695
241.1948, 1389.589
243.1233, 1288.635
245.0518, 1173.240
246.9802, 1066.562
248.9087, 972.9359
250.8372, 891.6168
252.7656, 820.1742
254.6941, 760.3515
256.6226, 711.6616
258.5510, 671.8743
260.4795, 643.3575
262.4080, 621.9672
264.3364, 611.1001
266.2649, 607.2496
268.1934, 602.4350
270.1218, 597.5563
272.0503, 589.6212
273.9788, 576.6014
275.9072, 557.9352
277.8357, 537.2451
279.7642, 512.9852
281.6926, 486.6278
283.6211, 461.3752
285.5496, 434.4460
287.4780, 411.6769
289.4065, 395.5057
291.3350, 385.4750
293.2634, 380.4426
295.1919, 384.1253
297.1204, 391.5641
299.0488, 399.5815
300.9773, 409.9578
302.9058, 417.9891
304.8342, 421.2840
306.7627, 420.6870
308.6912, 415.3827
310.6196, 400.9487
312.5481, 383.8866
314.4766, 367.6381
316.4050, 352.0451
318.3335, 337.4265
320.2620, 325.1498
322.1904, 315.2366
324.1189, 307.9503
326.0474, 302.6397
327.9758, 300.1181
329.9043, 301.6661
331.8328, 306.7623
333.7612, 312.8524
335.6897, 320.9247
337.6182, 328.8758
339.5467, 334.6004
341.4751, 339.0042
343.4036, 339.9276
345.3321, 334.4196
347.2605, 323.7814
349.1890, 311.8776
351.1175, 297.5314
353.0459, 281.6010
354.9744, 266.0139
356.9029, 251.1068
358.8313, 237.5030
360.7598, 225.1794
362.6883, 214.4762
364.6167, 206.2586
366.5452, 201.6158
368.4737, 197.8190
370.4021, 193.9550
372.3306, 190.0893
374.2591, 187.2202
376.1875, 185.6671
378.1160, 184.9043
380.0445, 184.7300
381.9729, 185.1858
383.9014, 186.0054
385.8299, 186.5356
387.7583, 186.9541
389.6868, 188.0251
391.6153, 190.5879
393.5437, 193.4760
395.4722, 196.6176
397.4007, 200.1743
399.3291, 204.5662
401.2576, 209.8399
403.1861, 215.4515
405.1145, 221.1140
407.0430, 226.2712
408.9715, 233.1981
410.8999, 241.7102
412.8284, 251.4328
414.7569, 262.0858
416.6853, 273.3676
418.6138, 286.1249
420.5423, 300.9383
422.4707, 318.1836
424.3992, 337.6703
426.3277, 360.3680
428.2561, 384.8591
430.1846, 410.1123
432.1131, 435.1612
434.0415, 463.9673
435.9700, 495.9474
437.8985, 533.2885
439.8269, 577.4453
441.7554, 630.4650
443.6839, 689.0043
445.6123, 753.6274
447.5408, 824.4059
449.4693, 885.7541
451.3977, 941.0695
453.3262, 980.5024
455.2547, 997.2916
457.1831, 983.8915
459.1116, 952.7091
461.0401, 905.0423
462.9685, 845.8881
464.8970, 781.3195
466.8255, 716.6188
468.7539, 656.8575
470.6824, 605.5070
472.6109, 563.4931
474.5393, 530.3575
476.4678, 505.1403
478.3963, 486.4623
480.3247, 475.0078
482.2532, 469.3856
484.1817, 468.1925
486.1101, 469.2476
488.0386, 472.9525
489.9671, 480.4155
491.8955, 493.4545
493.8240, 510.9386
495.7525, 532.4406
497.6809, 557.5380
499.6094, 586.2573
501.5379, 620.2676
503.4663, 657.4717
505.3948, 697.5372
507.3233, 740.4826
509.2517, 785.4716
511.1802, 831.9816
513.1086, 880.4769
515.0371, 931.2189
516.9656, 985.1953
518.8940, 1037.848
520.8225, 1088.942
522.7510, 1137.231
524.6794, 1183.184
526.6079, 1226.160
528.5364, 1263.770
530.4648, 1294.206
532.3933, 1316.922
534.3218, 1332.180
536.2502, 1343.375
538.1787, 1348.938
540.1072, 1348.389
542.0356, 1340.349
543.9641, 1322.800
545.8926, 1293.639
547.8210, 1258.163
549.7495, 1216.159
551.6780, 1166.691
553.6064, 1121.614
555.5349, 1080.946
557.4634, 1049.527
559.3918, 1028.861
561.3203, 1024.666
563.2488, 1020.196
565.1772, 1014.853
567.1057, 1004.880
569.0342, 990.6141
570.9626, 964.9528
572.8911, 927.6911
574.8196, 875.9061
576.7480, 813.9034
578.6765, 746.8041
580.6050, 678.0128
582.5335, 616.6989
584.4620, 565.2202
586.3904, 524.8812
588.3189, 492.6762
590.2474, 467.8937
592.1758, 448.0003
594.1043, 433.0447
596.0328, 423.7464
597.9612, 416.2498
599.8897, 409.6854
601.8182, 404.3925
603.7466, 401.6547
605.6751, 401.2718
607.6036, 401.3737
609.5320, 401.3979
611.4605, 401.8749
613.3890, 403.8847
615.3174, 407.7853
617.2459, 410.2294
619.1744, 410.2351
621.1028, 408.9534
623.0313, 407.3152
624.9598, 404.7393
626.8882, 400.9284
628.8167, 395.2047
630.7452, 388.9288
632.6736, 383.9406
634.6021, 380.9985
636.5306, 377.9795
638.4590, 373.9200
640.3875, 368.6019
642.3160, 363.6688
644.2444, 359.8992
646.1729, 357.0089
648.1014, 354.8379
650.0298, 352.9386
651.9583, 351.6100
653.8868, 350.8497
655.8152, 350.7838
657.7437, 351.5820
659.6722, 353.4751
661.6006, 355.3036
663.5291, 356.8331
665.4576, 358.5202
667.3860, 360.7547
669.3145, 363.3384
671.2430, 365.7797
673.1714, 368.1006
675.0999, 370.1835
677.0284, 371.7842
678.9568, 373.2001
680.8853, 375.0213
682.8138, 377.5372
684.7422, 379.9139
686.6707, 381.8876
688.5992, 383.5137
690.5276, 385.4789
692.4561, 388.5202
694.3846, 391.4391
696.3130, 392.6109
698.2415, 391.3008
700.1700, 390.8846
702.0984, 392.8198
704.0269, 395.2722
705.9554, 396.5221
707.8839, 395.9865
709.8123, 395.5620
711.7408, 395.3700
713.6693, 395.6700
715.5977, 396.8601
717.5262, 399.3950
719.4547, 401.5584
721.3831, 401.9459
723.3116, 401.8737
725.2401, 403.3564
727.1685, 407.6199
729.0970, 411.8309
731.0255, 415.1633
732.9539, 418.2297
734.8824, 422.4233
736.8109, 428.3436
738.7393, 433.5640
740.6678, 436.8988
742.5963, 439.1379
744.5247, 441.7467
746.4532, 444.8528
748.3817, 448.3042
750.3101, 452.4660
752.2386, 456.6173
754.1671, 459.9058
756.0955, 461.9687
758.0240, 464.0387
759.9525, 467.0792
761.8809, 470.6405
763.8094, 472.5872
765.7379, 471.9238
767.6663, 470.7380
769.5948, 468.6560
771.5233, 466.2641
773.4517, 465.7260
775.3802, 468.7503
777.3087, 470.7786
779.2371, 468.9179
781.1656, 463.8233
783.0941, 461.7079
785.0225, 464.8767
786.9510, 468.5057
788.8795, 470.9450
790.8079, 472.8575
792.7364, 476.2339
794.6649, 481.0457
796.5933, 487.6502
798.5218, 495.8956
800.4503, 505.8803
802.3787, 517.8082
804.3072, 532.7433
806.2357, 548.1945
808.1641, 565.1163
810.0926, 582.9122
812.0211, 597.2595
813.9495, 606.6014
815.8780, 614.7068
817.8065, 622.4493
819.7349, 629.7542
821.6634, 638.4635
823.5919, 650.6165
825.5203, 662.0302
827.4488, 672.0858
829.3773, 680.0198
831.3057, 684.9266
833.2342, 685.8810
835.1627, 685.3449
837.0911, 684.9881
839.0196, 684.2911
840.9481, 680.5982
842.8765, 671.9331
844.8050, 662.4791
846.7335, 652.7917
848.6619, 642.6442
850.5904, 632.3383
852.5189, 621.5821
854.4473, 610.9932
856.3758, 600.6829
858.3043, 590.6414
860.2327, 581.1366
862.1612, 571.5121
864.0897, 563.7579
866.0181, 559.1328
867.9466, 556.7393
869.8751, 553.0028
871.8035, 545.9379
873.7320, 541.1845
875.6605, 542.1349
877.5889, 546.4227
879.5174, 549.8870
881.4459, 551.0313
883.3743, 553.9880
885.3028, 559.1680
887.2313, 566.4518
889.1597, 577.5575
891.0882, 592.9156
893.0167, 612.4586
894.9451, 634.3221
896.8736, 660.5051
898.8021, 695.0558
900.7305, 737.6168
902.6590, 792.7807
904.5875, 862.8600
906.5159, 947.5126
908.4444, 1035.947
910.3729, 1137.319
912.3013, 1239.664
914.2298, 1338.068
916.1583, 1443.241
918.0867, 1557.400
920.0152, 1673.368
921.9437, 1814.382
923.8721, 1991.371
925.8006, 2179.022
927.7291, 2373.641
929.6575, 2604.393
931.5860, 2889.394
933.5145, 3221.728
935.4429, 3648.681
937.3714, 4207.109
939.2999, 4854.222
941.2283, 5572.435
943.1568, 6408.042
945.0853, 7096.009
947.0137, 7646.033
948.9422, 8044.759
950.8707, 8087.006
952.7991, 7753.690
954.7276, 7218.490
956.6561, 6441.348
958.5845, 5467.736
960.5130, 4590.065
962.4415, 3786.085
964.3699, 3091.649
966.2984, 2544.478
968.2269, 2119.792
970.1553, 1790.185
972.0838, 1551.986
974.0123, 1369.304
975.9407, 1235.288
977.8692, 1131.508
979.7977, 1036.324
981.7261, 957.7599
983.6546, 889.2155
985.5831, 830.9425
987.5115, 784.2355
989.4400, 748.8600
991.3685, 721.2973
993.2969, 698.5399
995.2254, 679.9692
997.1539, 663.1061
999.0823, 646.9336
1001.011, 629.2805
1002.939, 617.3040
1004.868, 611.8245
1006.796, 611.2586
1008.725, 614.9342
1010.653, 626.2857
1012.582, 641.0443
1014.510, 660.9766
1016.439, 681.2479
1018.367, 698.8951
1020.295, 717.5095
1022.224, 741.9366
1024.152, 765.6990
1026.081, 795.6143
1028.009, 832.9694
1029.938, 878.6107
1031.866, 932.8174
1033.795, 1000.206
1035.723, 1078.886
1037.652, 1174.534
1039.580, 1294.451
1041.509, 1444.924
1043.437, 1607.821
1045.365, 1785.480
1047.294, 1961.176
1049.222, 2099.369
1051.151, 2195.303
1053.079, 2246.562
1055.008, 2207.469
1056.936, 2086.633
1058.865, 1921.655
1060.793, 1715.367
1062.722, 1485.238
1064.650, 1278.550
1066.579, 1094.939
1068.507, 939.4171
1070.436, 813.8805
1072.364, 715.5148
1074.292, 639.5804
1076.221, 584.4464
1078.150, 541.4959
1080.078, 508.5223
1082.006, 480.4060
1083.935, 454.5956
1085.863, 431.9760
1087.792, 412.8334
1089.720, 397.9553
1091.649, 384.8381
1093.577, 373.1454
1095.506, 364.5453
1097.434, 360.3520
1099.363, 358.2779
1101.291, 353.9957
1103.220, 347.1404
1105.148, 340.6678
1107.077, 337.1330
1109.005, 335.3690
1110.933, 333.7173
1112.862, 333.4206
1114.790, 333.1948
1116.719, 331.8570
1118.647, 329.1612
1120.576, 328.4810
1122.504, 329.3415
1124.433, 328.2123
1126.361, 324.5752
1128.290, 320.0502
1130.218, 317.5757
1132.147, 317.4954
1134.075, 318.1681
1136.004, 319.0883
1137.932, 320.3325
1139.860, 321.7725
1141.789, 323.2299
1143.717, 324.4283
1145.646, 325.4590
1147.574, 325.3205
1149.503, 324.0516
1151.431, 322.1589
1153.360, 320.8650
1155.288, 319.0974
1157.217, 317.6834
1159.145, 317.7208
1161.074, 318.1758
1163.002, 317.6755
1164.931, 316.2607
1166.859, 315.2258
1168.787, 315.0974
1170.716, 315.8271
1172.644, 316.1341
1174.573, 315.3833
1176.501, 314.0281
1178.430, 312.9531
1180.358, 312.8882
1182.287, 313.0113
1184.215, 312.6309
1186.144, 311.8423
1188.072, 311.3456
1190.001, 310.3227
1191.929, 307.8633
1193.858, 305.0686
1195.786, 302.9588
1197.714, 301.8019
1199.643, 301.3809
1201.571, 301.5298
1203.500, 300.6613
1205.428, 299.2124
1207.357, 297.8675
1209.285, 297.2193
1211.214, 297.1920
1213.142, 297.3047
1215.071, 298.4190
1216.999, 299.0523
1218.928, 297.8271
1220.856, 294.7900
1222.785, 292.9760
1224.713, 292.9793
1226.641, 292.9874
1228.570, 292.5865
1230.498, 291.9595
1232.427, 291.5138
1234.355, 291.4270
1236.284, 291.5760
1238.212, 291.7961
1240.141, 291.2255
1242.069, 290.8910
1243.998, 291.4088
1245.926, 291.9767
1247.855, 292.0256
1249.783, 291.3108
1251.712, 290.0250
1253.640, 288.6356
1255.568, 287.7815
1257.497, 287.8220
1259.425, 287.1545
1261.354, 284.3037
1263.282, 282.0209
1265.211, 282.5320
1267.139, 284.6406
1269.068, 285.5579
1270.996, 285.2598
1272.925, 285.2668
1274.853, 285.3903
1276.782, 285.0734
1278.710, 285.3911
1280.639, 286.6631
1282.567, 287.9662
1284.495, 289.7086
1286.424, 289.7950
1288.352, 286.5605
1290.281, 282.5247
1292.209, 280.8007
1294.138, 282.3422
1296.066, 283.1145
1297.995, 281.8926
1299.923, 281.1807
1301.852, 283.0896
1303.780, 286.5706
1305.709, 287.7512
1307.637, 285.8349
1309.566, 284.4539
1311.494, 284.7693
1313.422, 285.4190
1315.351, 285.7738
1317.279, 286.1710
1319.208, 286.3202
1321.136, 285.9602
1323.065, 285.7255
1324.993, 286.1828
1326.922, 286.7104
1328.850, 287.0331
1330.779, 287.1706
1332.707, 287.3190
1334.636, 287.4708
1336.564, 287.5745
1338.493, 287.3683
1340.421, 287.0575
1342.349, 286.8849
1344.278, 286.7033
1346.206, 286.8949
1348.135, 287.8052
1350.063, 288.7995
1351.992, 289.5276
1353.920, 290.0997
1355.849, 291.1353
1357.777, 292.8731
1359.706, 293.7001
1361.634, 292.5466
1363.563, 291.3798
1365.491, 291.2610
1367.420, 291.9088
1369.348, 292.9239
1371.276, 294.5333
1373.205, 295.4815
1375.133, 294.5226
1377.062, 293.7876
1378.990, 294.6688
1380.919, 296.8542
1382.847, 298.5015
1384.776, 299.3491
1386.704, 300.1080
1388.633, 300.8298
1390.561, 301.4860
1392.490, 302.0936
1394.418, 302.6412
1396.347, 303.0908
1398.275, 303.5604
1400.203, 303.7563
1402.132, 303.1779
1404.060, 302.6890
1405.989, 303.3739
1407.917, 304.9871
1409.846, 305.5016
1411.774, 304.1141
1413.703, 303.4988
1415.631, 305.5934
1417.560, 307.8969
1419.488, 307.7969
1421.417, 305.8462
1423.345, 305.6442
1425.274, 308.1023
1427.202, 310.7513
1429.130, 312.9104
1431.059, 314.7593
1432.987, 316.3779
1434.916, 317.9416
1436.844, 319.6305
1438.773, 321.5574
1440.701, 323.1866
1442.630, 324.2275
1444.558, 325.3797
1446.487, 327.4684
1448.415, 330.7502
1450.344, 333.1735
1452.272, 334.5048
1454.201, 334.8887
1456.129, 333.5098
1458.057, 332.0116
1459.986, 331.8280
1461.914, 332.5512
1463.843, 331.6734
1465.771, 327.9413
1467.700, 325.2193
1469.628, 324.5081
1471.557, 324.8081
1473.485, 326.1556
1475.414, 327.8426
1477.342, 327.4590
1479.271, 324.3209
1481.199, 322.4320
1483.128, 323.6022
1485.056, 325.1299
1486.984, 325.5218
1488.913, 325.0596
1490.841, 324.0812
1492.770, 322.3117
1494.698, 322.0055
1496.627, 324.9251
1498.555, 327.6794
1500.484, 328.4044
1502.412, 327.6948
1504.341, 327.0652
1506.269, 326.5531
1508.198, 326.9013
1510.126, 328.5352
1512.055, 330.6355
1513.983, 333.5539
1515.911, 336.4823
1517.840, 338.2341
1519.768, 338.7504
1521.697, 338.0851
1523.625, 333.7337
1525.554, 331.4982
1527.482, 334.5983
1529.411, 339.2694
1531.339, 341.0998
1533.268, 339.7667
1535.196, 339.4602
1537.125, 341.5154
1539.053, 342.9985
1540.982, 342.7504
1542.910, 342.3106
1544.839, 343.0855
1546.767, 344.8329
1548.695, 346.0849
1550.624, 346.4455
1552.552, 346.5819
1554.481, 346.9644
1556.409, 347.1703
1558.338, 346.3817
1560.266, 345.1646
1562.195, 345.5143
1564.123, 347.9871
1566.052, 348.8646
1567.980, 345.7130
1569.909, 343.4096
1571.837, 344.9063
1573.766, 347.6580
1575.694, 347.9688
1577.622, 346.2283
1579.551, 346.5828
1581.479, 350.6974
1583.408, 353.4855
1585.336, 352.1043
1587.265, 350.1479
1589.193, 350.2786
1591.122, 351.8283
1593.050, 353.1147
1594.979, 354.0457
1596.907, 355.0899
1598.836, 356.4550
1600.764, 357.5512
1602.693, 357.8725
1604.621, 357.8552
1606.549, 357.9857
1608.478, 358.3288
1610.406, 358.9447
1612.335, 359.7940
1614.263, 361.0193
1616.192, 363.7378
1618.120, 365.9607
1620.049, 365.4327
1621.977, 363.2875
1623.906, 363.6856
1625.834, 367.3199
1627.763, 370.1996
1629.691, 370.8290
1631.620, 371.6397
1633.548, 373.7491
1635.476, 376.4340
1637.405, 379.1336
1639.333, 381.8369
1641.262, 383.3647
1643.190, 382.8647
1645.119, 383.2384
1647.047, 386.6018
1648.976, 389.5212
1650.904, 389.6824
1652.833, 388.1902
1654.761, 387.6261
1656.690, 388.1277
1658.618, 388.6094
1660.547, 388.4120
1662.475, 389.2496
1664.403, 393.8957
1666.332, 397.7558
1668.260, 396.3072
1670.189, 390.5223
1672.117, 385.9773
1674.046, 383.1768
1675.974, 379.8908
1677.903, 375.0590
1679.831, 370.5706
1681.760, 367.2499
1683.688, 364.4002
1685.617, 361.3690
1687.545, 358.1669
1689.474, 354.4301
1691.402, 349.3037
1693.330, 345.7901
1695.259, 345.7454
1697.187, 345.8056
1699.116, 344.0621
1701.044, 341.7945
1702.973, 341.1298
1704.901, 342.2463
1706.830, 342.4973
1708.758, 340.9016
1710.687, 340.1986
1712.615, 340.8934
1714.544, 342.4438
1716.472, 345.2185
1718.401, 348.4156
1720.329, 350.6565
1722.257, 351.9903
1724.186, 352.2222
1726.114, 350.9325
1728.043, 349.3740
1729.971, 346.9431
1731.900, 345.1967
1733.828, 345.3345
1735.757, 346.6343
1737.685, 348.0797
1739.614, 349.9295
1741.542, 349.3233
1743.471, 344.4814
1745.399, 340.6840
1747.328, 339.7185
1749.256, 339.5040
1751.184, 339.1011
1753.113, 338.5440
1755.041, 337.8957
1756.970, 337.1013
1758.898, 336.0446
1760.827, 334.2166
1762.755, 333.1862
1764.684, 334.1913
1766.612, 335.1614
1768.541, 334.5417
1770.469, 333.5401
1772.398, 334.5546
1774.326, 337.5151
1776.255, 338.8215
1778.183, 337.3519
1780.111, 337.1371
1782.040, 340.2656
1783.968, 343.2035
1785.897, 344.3279
1787.825, 344.1072
1789.754, 342.6541
1791.682, 340.2214
1793.611, 338.6412
1795.539, 338.1721
1797.468, 337.7800
1799.396, 337.2351
1801.325, 336.8169
1803.253, 336.7892
1805.182, 336.8779
1807.110, 337.0397
1809.038, 337.1049
1810.967, 336.3080
1812.895, 334.4922
1814.824, 333.3144
1816.752, 333.2814
1818.681, 333.3181
1820.609, 332.9651
1822.538, 332.6001
1824.466, 332.4924
1826.395, 332.5847
1828.323, 332.9195
1830.252, 333.4887
1832.180, 333.2723
1834.109, 331.7086
1836.037, 330.6033
1837.965, 330.8241
1839.894, 331.0262
1841.822, 330.4229
1843.751, 329.5161
1845.679, 328.8415
1847.608, 328.4305
1849.536, 328.5434
1851.465, 329.5478
1853.393, 329.9883
1855.322, 328.8320
1857.250, 328.4193
1859.179, 330.3903
1861.107, 332.2520
1863.036, 331.8018
1864.964, 329.9129
1866.892, 328.4367
1868.821, 327.3693
1870.749, 326.9597
1872.678, 328.5404
1874.606, 328.5723
1876.535, 324.6617
1878.463, 322.0099
1880.392, 323.7599
1882.320, 326.7529
1884.249, 327.9670
1886.177, 327.6256
1888.106, 326.4597
1890.034, 324.1024
1891.963, 323.4616
1893.891, 325.8160
1895.819, 327.3835
1897.748, 326.9430
1899.676, 325.9570
1901.605, 325.1465
1903.533, 324.2979
1905.462, 322.9853
1907.390, 321.3922
1909.319, 320.0849
1911.247, 319.0076
1913.176, 319.0207
1915.104, 320.8891
1917.033, 322.1586
1918.961, 321.6105
1920.890, 320.6906
1922.818, 320.3566
1924.746, 320.1013
1926.675, 318.9937
1928.603, 317.2797
1930.532, 316.4655
1932.460, 316.7546
1934.389, 317.0046
1936.317, 317.1009
1938.246, 317.2160
1940.174, 317.7838
1942.103, 317.9502
1944.031, 316.5400
1945.960, 314.9182
1947.888, 315.2172
1949.817, 317.0613
1951.745, 318.0197
1953.673, 317.9359
1955.602, 317.3257
1957.530, 315.2103
1959.459, 314.3304
1961.387, 316.8300
1963.316, 318.6909
1965.244, 317.4669
1967.173, 315.3373
1969.101, 314.3805
1971.030, 314.4294
1972.958, 315.1846
1974.887, 316.6357
1976.815, 317.2390
1978.744, 316.5407
1980.672, 316.1262
1982.600, 316.4841
1984.529, 316.9104
1986.457, 317.0905
1988.386, 317.1708
1990.314, 317.2259
1992.243, 317.2943
1994.171, 317.4268
1996.100, 317.6471
1998.028, 318.2081
1999.957, 319.7246
2001.885, 320.0119
2003.814, 317.6966
2005.742, 316.1005
2007.671, 316.3291
2009.599, 316.9547
2011.527, 317.3667
2013.456, 317.6108
2015.384, 317.8230
2017.313, 317.9011
2019.241, 317.0917
2021.170, 315.2567
2023.098, 315.4201
2025.027, 318.4032
2026.955, 320.8696
2028.884, 322.4495
2030.812, 322.9100
2032.741, 321.3506
2034.669, 319.6041
2036.598, 318.7028
2038.526, 318.5665
2040.454, 319.2101
2042.383, 320.5336
2044.311, 322.2541
2046.240, 324.5457
2048.168, 325.6691
2050.097, 324.7557
2052.025, 324.0484
2053.954, 323.1180
2055.882, 323.3176
2057.811, 326.5533
2059.739, 329.5571
2061.667, 329.5934
2063.596, 328.2884
2065.525, 328.1212
2067.453, 328.8436
2069.382, 328.7296
2071.310, 327.6983
2073.239, 326.9627
2075.167, 326.3121
2077.095, 327.1124
2079.024, 330.8155
2080.952, 333.5616
2082.881, 332.6319
2084.809, 331.6449
2086.738, 333.9970
2088.666, 336.8837
2090.595, 336.0783
2092.523, 333.0241
2094.452, 332.5457
2096.380, 334.8895
2098.309, 336.2344
2100.237, 335.6603
2102.166, 335.8278
2104.094, 337.2729
2106.022, 338.6058
2107.951, 339.6451
2109.879, 340.4877
2111.808, 341.6044
2113.736, 342.2051
2115.665, 341.1335
2117.593, 339.3635
2119.522, 338.1986
2121.450, 337.7351
2123.379, 338.7049
2125.307, 341.2070
2127.236, 343.2278
2129.164, 344.6921
2131.093, 345.5306
2133.021, 345.1651
2134.949, 345.1042
2136.878, 346.5861
2138.806, 347.4701
2140.735, 345.1689
2142.663, 342.8729
2144.592, 344.6829
2146.520, 348.5251
2148.449, 350.0642
2150.377, 349.5348
2152.306, 348.1883
2154.234, 346.0483
2156.163, 344.3649
2158.091, 343.0986
2160.020, 343.1047
2161.948, 345.4539
2163.876, 347.3148
2165.805, 347.1474
2167.733, 346.9467
2169.662, 348.0383
2171.590, 349.3509
2173.519, 349.7402
2175.447, 349.7814
2177.376, 350.6617
2179.304, 352.1569
2181.233, 352.8406
2183.161, 352.6705
2185.090, 352.3178
2187.018, 351.8453
2188.947, 350.5363
2190.875, 347.6789
2192.803, 345.7607
2194.732, 345.6898
2196.660, 346.5067
2198.589, 349.3601
2200.517, 351.2422
2202.446, 348.9673
2204.374, 345.5752
2206.303, 344.6884
2208.231, 345.3562
2210.160, 345.5040
2212.088, 345.1467
2214.017, 344.4352
2215.945, 343.3449
2217.874, 342.6384
2219.802, 342.4884
2221.730, 341.9027
2223.659, 340.1523
2225.587, 339.4665
2227.516, 341.6094
2229.444, 343.2859
2231.373, 343.1016
2233.301, 342.1045
2235.230, 340.5263
2237.158, 338.9601
2239.087, 338.1461
2241.015, 337.7753
2242.944, 337.3392
2244.872, 336.7790
2246.801, 335.3982
2248.729, 333.2899
2250.657, 333.1528
2252.586, 335.4360
2254.514, 336.4055
2256.443, 335.3625
2258.371, 333.6537
2260.300, 330.3249
2262.228, 328.2940
2264.157, 330.0292
2266.085, 330.9543
2268.014, 327.7815
2269.942, 324.3109
2271.871, 323.6521
2273.799, 324.0490
2275.728, 323.7751
2277.656, 322.8664
2279.584, 320.8527
2281.513, 318.2665
2283.441, 317.1220
2285.370, 317.4280
2287.298, 318.7670
2289.227, 322.1411
2291.155, 322.4575
2293.084, 316.3954
2295.012, 312.8222
2296.941, 313.9332
2298.869, 314.4185
2300.798, 312.6625
2302.726, 311.1630
2304.655, 311.3768
2306.583, 311.4264
2308.511, 309.9114
2310.440, 307.9811
2312.368, 306.4837
2314.297, 305.3506
2316.225, 304.1413
2318.154, 303.3637
2320.082, 304.9464
2322.011, 308.3738
2323.939, 309.3547
2325.868, 307.7960
2327.796, 306.8982
2329.725, 306.7906
2331.653, 306.7858
2333.582, 307.0961
2335.510, 305.8048
2337.438, 301.2730
2339.367, 297.9995
2341.295, 297.8140
2343.224, 297.9930
2345.152, 298.0238
2347.081, 297.8061
2349.009, 297.0242
2350.938, 296.3278
2352.866, 296.3639
2354.795, 296.5341
2356.723, 295.9352
2358.652, 295.2984
2360.580, 296.1657
2362.509, 297.6341
2364.437, 297.2597
2366.365, 295.3830
2368.294, 294.2425
2370.222, 293.8990
2372.151, 292.8277
2374.079, 290.8999
2376.008, 289.0795
2377.936, 287.3016
2379.865, 286.4632
2381.793, 286.9518
2383.722, 287.5117
2385.650, 288.2101
2387.579, 288.2983
2389.507, 286.7607
2391.436, 285.7803
2393.364, 287.5458
2395.292, 288.1094
2397.221, 283.7621
2399.149, 279.4772
2401.078, 278.6105
2403.006, 279.4282
2404.935, 281.3447
2406.863, 283.2858
2408.792, 284.1079
2410.720, 283.8527
2412.649, 282.0429
2414.577, 279.3073
2416.506, 277.7838
2418.434, 277.3922
2420.363, 277.6732
2422.291, 278.5497
2424.219, 278.5791
2426.148, 277.6835
2428.076, 277.5046
2430.005, 278.4068
2431.933, 278.9249
2433.862, 279.2441
2435.790, 278.5326
2437.719, 275.4609
2439.647, 273.6286
2441.576, 273.8189
2443.504, 274.5092
2445.433, 276.2152
2447.361, 276.4811
2449.290, 272.4482
2451.218, 269.3917
2453.146, 270.7345
2455.075, 272.9373
2457.003, 274.3800
2458.932, 274.9931
2460.860, 274.1524
2462.789, 273.0077
2464.717, 273.1234
2466.646, 273.3918
2468.574, 271.7993
2470.503, 269.6910
2472.431, 269.4061
2474.360, 270.3955
2476.288, 271.5091
2478.217, 272.6059
2480.145, 272.9542
2482.073, 272.5890
2484.002, 272.0745
2485.930, 271.3835
2487.859, 270.0586
2489.787, 268.0713
2491.716, 267.1158
2493.644, 267.3994
2495.573, 268.3419
2497.501, 271.1993
2499.430, 271.6721
2501.358, 268.4922
2503.287, 267.0378
2505.215, 268.4660
2507.144, 269.5440
2509.072, 269.3230
2511.000, 269.3068
2512.929, 270.3627
2514.857, 270.8825
2516.786, 269.4839
2518.714, 268.9666
2520.643, 271.3511
2522.571, 273.2670
2524.500, 273.3028
2526.428, 272.8864
2528.357, 272.3897
2530.285, 272.1740
2532.214, 272.5771
2534.142, 273.1524
2536.071, 273.6821
2537.999, 274.0791
2539.927, 274.6030
2541.856, 274.6639
2543.784, 272.3377
2545.713, 270.4149
2547.641, 273.2799
2549.570, 277.6493
2551.498, 278.6917
2553.427, 277.7679
2555.355, 277.1123
2557.284, 276.6653
2559.212, 276.3135
2561.141, 276.0843
2563.069, 275.9593
2564.998, 276.0329
2566.926, 276.5308
2568.854, 277.4648
2570.783, 279.1961
2572.711, 281.5583
2574.640, 282.7707
2576.568, 282.8334
2578.497, 281.5587
2580.425, 279.1622
2582.354, 278.6815
2584.282, 280.2698
2586.211, 280.9315
2588.139, 280.2561
2590.068, 280.5232
2591.996, 281.9476
2593.925, 283.4101
2595.853, 284.9787
2597.781, 285.6244
2599.710, 285.0996
2601.638, 284.8898
2603.567, 285.0471
2605.495, 285.9525
2607.424, 288.6138
2609.352, 289.7036
2611.281, 288.4968
2613.209, 288.0322
2615.138, 288.8752
2617.066, 289.9293
2618.995, 291.3607
2620.923, 291.9864
2622.852, 290.8336
2624.780, 290.0851
2626.708, 289.2812
2628.637, 290.4778
2630.565, 295.1337
2632.494, 298.5292
2634.422, 299.0082
2636.351, 299.1042
2638.279, 299.2519
2640.208, 299.6668
2642.136, 300.4141
2644.065, 301.4241
2645.993, 302.8921
2647.922, 304.0703
2649.850, 304.3286
2651.779, 305.0713
2653.707, 307.5822
2655.635, 309.5018
2657.564, 309.1252
2659.492, 309.5505
2661.421, 312.7811
2663.349, 315.0155
2665.278, 313.9608
2667.206, 313.4442
2669.135, 316.1037
2671.063, 318.1791
2672.992, 316.6563
2674.920, 316.4650
2676.849, 320.6527
2678.777, 324.7928
2680.706, 327.4729
2682.634, 329.2872
2684.563, 330.5163
2686.491, 330.9826
2688.419, 329.4872
2690.348, 328.8914
2692.276, 331.0653
2694.205, 333.5092
2696.133, 334.9862
2698.062, 336.9290
2699.990, 340.6357
2701.919, 344.0504
2703.847, 346.6741
2705.776, 348.1385
2707.704, 347.1933
2709.633, 346.8182
2711.561, 348.2345
2713.490, 350.4268
2715.418, 353.5448
2717.346, 356.3111
2719.275, 357.6968
2721.203, 359.1927
2723.132, 360.9636
2725.060, 363.6650
2726.989, 368.6973
2728.917, 372.5814
2730.846, 372.4863
2732.774, 373.0848
2734.703, 377.2206
2736.631, 380.7750
2738.560, 382.1072
2740.488, 383.3994
2742.417, 385.0516
2744.345, 387.4151
2746.273, 390.7545
2748.202, 394.5337
2750.130, 399.9308
2752.059, 403.2939
2753.987, 402.6515
2755.916, 402.8112
2757.844, 405.2354
2759.773, 408.6226
2761.701, 413.0919
2763.630, 417.6414
2765.558, 422.6563
2767.487, 426.3145
2769.415, 427.6922
2771.344, 429.6022
2773.272, 432.5534
2775.200, 436.5151
2777.129, 442.1497
2779.057, 447.8131
2780.986, 454.4937
2782.914, 456.8253
2784.843, 452.5343
2786.771, 452.2039
2788.700, 459.3640
2790.628, 465.0121
2792.557, 467.2410
2794.485, 472.3380
2796.414, 481.2170
2798.342, 485.9254
2800.271, 485.0365
2802.199, 486.8907
2804.127, 492.8860
2806.056, 498.2449
2807.984, 502.9416
2809.913, 507.7957
2811.841, 512.9073
2813.770, 519.0935
2815.698, 526.4026
2817.627, 532.4012
2819.555, 537.1554
2821.484, 541.4617
2823.412, 545.5762
2825.341, 551.4213
2827.269, 558.6661
2829.198, 565.3564
2831.126, 572.1561
2833.054, 582.9913
2834.983, 595.6149
2836.911, 602.7990
2838.840, 606.6923
2840.768, 610.6833
2842.697, 615.6340
2844.625, 624.7256
2846.554, 634.3982
2848.482, 638.2614
2850.411, 640.1105
2852.339, 643.5094
2854.268, 648.8245
2856.196, 657.9340
2858.125, 667.4550
2860.053, 674.0862
2861.981, 679.9047
2863.910, 684.8083
2865.838, 691.6842
2867.767, 704.8245
2869.695, 716.6957
2871.624, 720.4728
2873.552, 726.2642
2875.481, 739.8414
2877.409, 752.6819
2879.338, 761.7165
2881.266, 770.2524
2883.195, 778.5128
2885.123, 788.2182
2887.052, 800.4136
2888.980, 811.7831
2890.908, 821.6828
2892.837, 831.6193
2894.765, 841.9398
2896.694, 852.0436
2898.622, 862.2280
2900.551, 870.0109
2902.479, 875.2767
2904.408, 885.2267
2906.336, 900.2689
2908.265, 914.3069
2910.193, 927.2814
2912.122, 940.4504
2914.050, 953.5851
2915.979, 965.2171
2917.907, 976.1469
2919.835, 987.4865
2921.764, 1000.679
2923.692, 1021.507
2925.621, 1044.074
2927.549, 1056.533
2929.478, 1067.080
2931.406, 1087.260
2933.335, 1107.083
2935.263, 1113.848
2937.192, 1120.474
2939.120, 1137.270
2941.049, 1154.912
2942.977, 1167.922
2944.906, 1181.350
2946.834, 1198.328
2948.762, 1214.698
2950.691, 1230.723
2952.619, 1241.993
2954.548, 1246.189
2956.476, 1249.078
2958.405, 1252.232
2960.333, 1252.684
2962.262, 1249.874
2964.190, 1250.246
2966.119, 1254.363
2968.047, 1260.918
2969.976, 1269.631
2971.904, 1278.345
2973.833, 1287.096
2975.761, 1296.115
2977.689, 1306.095
2979.618, 1320.024
2981.546, 1335.337
2983.475, 1344.575
2985.403, 1354.024
2987.332, 1375.508
2989.260, 1397.876
2991.189, 1407.526
2993.117, 1418.242
2995.046, 1442.349
2996.974, 1467.478
2998.903, 1488.732
3000.831, 1508.027
3002.760, 1525.368
3004.688, 1542.203
3006.616, 1557.486
3008.545, 1576.898
3010.473, 1602.667
3012.402, 1623.421
3014.330, 1635.679
3016.259, 1654.771
3018.187, 1681.335
3020.116, 1706.237
3022.044, 1729.610
3023.973, 1753.572
3025.901, 1778.004
3027.830, 1802.084
3029.758, 1826.906
3031.687, 1855.905
3033.615, 1885.786
3035.543, 1911.510
3037.472, 1937.729
3039.400, 1968.853
3041.329, 2001.948
3043.257, 2034.416
3045.186, 2070.560
3047.114, 2116.362
3049.043, 2159.113
3050.971, 2193.798
3052.900, 2228.323
3054.828, 2262.287
3056.757, 2301.728
3058.685, 2347.313
3060.614, 2401.358
3062.542, 2464.296
3064.470, 2516.813
3066.399, 2562.539
3068.327, 2614.228
3070.256, 2670.906
3072.184, 2730.318
3074.113, 2792.695
3076.041, 2859.327
3077.970, 2927.777
3079.898, 2993.674
3081.827, 3064.008
3083.755, 3143.810
3085.684, 3229.313
3087.612, 3322.664
3089.541, 3412.197
3091.469, 3490.528
3093.397, 3573.498
3095.326, 3662.505
3097.254, 3755.275
3099.183, 3851.642
3101.111, 3944.887
3103.040, 4035.917
3104.968, 4135.387
3106.897, 4239.362
3108.825, 4336.665
3110.754, 4429.665
3112.682, 4519.226
3114.611, 4608.980
3116.539, 4708.642
3118.468, 4801.021
3120.396, 4877.068
3122.324, 4943.799
3124.253, 4998.376
3126.181, 5056.477
3128.110, 5123.801
3130.038, 5173.904
3131.967, 5200.090
3133.895, 5236.908
3135.824, 5285.320
3137.752, 5314.373
3139.681, 5327.870
3141.609, 5341.256
3143.538, 5349.539
3145.466, 5338.090
3147.395, 5322.549
3149.323, 5324.257
3151.251, 5323.529
3153.180, 5308.792
3155.108, 5286.781
3157.037, 5251.796
3158.965, 5230.240
3160.894, 5230.696
3162.822, 5222.416
3164.751, 5198.786
3166.679, 5176.384
3168.608, 5155.459
3170.536, 5139.141
3172.465, 5126.543
3174.393, 5117.294
3176.322, 5107.300
3178.250, 5086.546
3180.178, 5065.936
3182.107, 5055.684
3184.035, 5047.263
3185.964, 5037.836
3187.892, 5026.247
3189.821, 5010.539
3191.749, 5001.233
3193.678, 5005.122
3195.606, 4994.078
3197.535, 4968.694
3199.463, 4961.410
3201.392, 4967.962
3203.320, 4972.246
3205.249, 4974.532
3207.177, 4975.988
3209.105, 4974.777
3211.034, 4965.513
3212.962, 4959.933
3214.891, 4968.563
3216.819, 4975.563
3218.748, 4975.976
3220.676, 4982.465
3222.605, 4998.606
3224.533, 5012.103
3226.462, 5022.236
3228.390, 5031.826
3230.319, 5040.966
3232.247, 5053.829
3234.176, 5064.983
3236.104, 5062.794
3238.032, 5062.216
3239.961, 5073.339
3241.889, 5091.219
3243.818, 5118.393
3245.746, 5141.372
3247.675, 5156.916
3249.603, 5171.624
3251.532, 5185.278
3253.460, 5204.750
3255.389, 5227.904
3257.317, 5244.535
3259.246, 5256.857
3261.174, 5267.414
3263.103, 5276.374
3265.031, 5284.784
3266.959, 5289.205
3268.888, 5285.136
3270.816, 5281.722
3272.745, 5283.052
3274.673, 5275.062
3276.602, 5257.060
3278.530, 5245.673
3280.459, 5239.295
3282.387, 5224.020
3284.316, 5205.093
3286.244, 5193.081
3288.173, 5179.669
3290.101, 5155.475
3292.030, 5130.228
3293.958, 5109.336
3295.886, 5084.771
3297.815, 5051.088
3299.743, 5023.088
3301.672, 5001.164
3303.600, 4987.877
3305.529, 4977.042
3307.457, 4942.386
3309.386, 4900.260
3311.314, 4878.167
3313.243, 4856.166
3315.171, 4818.991
3317.100, 4780.837
3319.028, 4744.675
3320.957, 4718.617
3322.885, 4707.077
3324.813, 4684.677
3326.742, 4651.471
3328.670, 4614.975
3330.599, 4579.733
3332.527, 4557.723
3334.456, 4537.480
3336.384, 4509.805
3338.313, 4474.583
3340.241, 4426.212
3342.170, 4384.664
3344.098, 4357.022
3346.027, 4325.953
3347.955, 4291.204
3349.884, 4256.951
3351.812, 4223.188
3353.740, 4190.564
3355.669, 4155.935
3357.597, 4112.909
3359.526, 4071.136
3361.454, 4039.312
3363.383, 4003.128
3365.311, 3958.421
3367.240, 3918.920
3369.168, 3886.146
3371.097, 3847.927
3373.025, 3806.779
3374.954, 3773.422
3376.882, 3739.303
3378.811, 3691.448
3380.739, 3642.878
3382.667, 3599.291
3384.596, 3559.596
3386.524, 3525.947
3388.453, 3489.646
3390.381, 3450.483
3392.310, 3409.895
3394.238, 3369.249
3396.167, 3332.067
3398.095, 3298.332
3400.024, 3271.856
3401.952, 3241.566
3403.881, 3197.735
3405.809, 3156.348
3407.738, 3119.780
3409.666, 3083.911
3411.594, 3048.618
3413.523, 3014.501
3415.451, 2980.802
3417.380, 2946.037
3419.308, 2910.316
3421.237, 2870.152
3423.165, 2835.325
3425.094, 2810.409
3427.022, 2784.168
3428.951, 2754.864
3430.879, 2722.249
3432.808, 2687.784
3434.736, 2657.939
3436.665, 2628.697
3438.593, 2591.768
3440.521, 2557.578
3442.450, 2530.410
3444.378, 2511.349
3446.307, 2503.688
3448.235, 2482.631
3450.164, 2448.526
3452.092, 2419.687
3454.021, 2396.166
3455.949, 2381.595
3457.878, 2367.547
3459.806, 2347.022
3461.735, 2326.792
3463.663, 2308.776
3465.592, 2292.347
3467.520, 2277.490
3469.448, 2262.672
3471.377, 2245.904
3473.305, 2218.031
3475.234, 2188.778
3477.162, 2170.798
3479.091, 2149.054
3481.019, 2118.528
3482.948, 2083.796
3484.876, 2046.051
3486.805, 2001.015
3488.733, 1951.965
3490.662, 1910.229
3492.590, 1871.436
3494.519, 1830.395
3496.447, 1790.618
3498.375, 1757.530
3500.304, 1712.598
3502.232, 1650.566
3504.161, 1599.919
3506.089, 1559.106
3508.018, 1519.446
3509.946, 1480.465
3511.875, 1440.347
3513.803, 1402.985
3515.732, 1372.283
3517.660, 1340.449
3519.589, 1306.489
3521.517, 1275.680
3523.446, 1247.513
3525.374, 1217.725
3527.302, 1191.449
3529.231, 1177.795
3531.159, 1163.015
3533.088, 1139.435
3535.016, 1116.526
3536.945, 1095.222
3538.873, 1077.535
3540.802, 1061.955
3542.730, 1043.370
3544.659, 1024.082
3546.587, 1005.205
3548.516, 988.7837
3550.444, 975.9398
3552.373, 962.8990
3554.301, 949.2579
3556.229, 935.2109
3558.158, 920.5109
3560.086, 902.6729
3562.015, 886.5095
3563.943, 878.9442
3565.872, 867.6317
3567.800, 848.3345
3569.729, 833.4246
3571.657, 823.2887
3573.586, 815.3650
3575.514, 807.1854
3577.443, 794.3643
3579.371, 780.9796
3581.300, 768.6340
3583.228, 758.0203
3585.156, 749.6495
3587.085, 740.9048
3589.013, 731.6397
3590.942, 720.8747
3592.870, 710.4078
3594.799, 703.4261
3596.727, 694.8578
3598.656, 681.6004
3600.584, 671.9857
3602.513, 666.1194
3604.441, 658.9385
3606.370, 651.2716
3608.298, 645.6047
3610.227, 638.3466
3612.155, 625.7545
3614.083, 616.8599
3616.012, 614.0875
3617.940, 608.8266
3619.869, 601.4781
3621.797, 593.2310
3623.726, 585.5078
3625.654, 580.2793
3627.583, 574.3192
3629.511, 564.6227
3631.440, 559.8782
3633.368, 558.9115
3635.297, 553.1024
3637.225, 545.2588
3639.154, 539.1307
3641.082, 533.7177
3643.010, 529.2020
3644.939, 523.2643
3646.867, 515.8907
3648.796, 512.1834
3650.724, 510.0567
3652.653, 504.4065
3654.581, 499.2109
3656.510, 498.0220
3658.438, 495.0226
3660.367, 489.1138
3662.295, 487.5363
3664.224, 487.8448
3666.152, 480.8038
3668.081, 473.1447
3670.009, 470.6668
3671.938, 467.9245
3673.866, 463.3016
3675.794, 460.2437
3677.723, 457.8568
3679.651, 450.3258
3681.580, 443.5451
3683.508, 444.6083
3685.437, 445.3902
3687.365, 443.1755
3689.294, 439.8602
3691.222, 435.7379
3693.151, 432.3052
3695.079, 428.7520
3697.008, 423.3154
3698.936, 419.2311
3700.865, 418.7812
3702.793, 417.6656
3704.721, 415.6728
3706.650, 412.3329
3708.578, 408.3637
3710.507, 403.9964
3712.435, 400.8010
3714.364, 401.0021
3716.292, 397.9950
3718.221, 392.3389
3720.149, 389.1270
3722.078, 387.1511
3724.006, 385.4113
3725.935, 382.9100
3727.863, 378.8106
3729.792, 374.8056
3731.720, 371.1902
3733.648, 369.5503
3735.577, 368.3346
3737.505, 364.6041
3739.434, 362.3874
3741.362, 364.9154
3743.291, 364.2397
3745.219, 360.8917
3747.148, 358.2508
3749.076, 356.4043
3751.005, 355.9329
3752.933, 355.1356
3754.862, 353.3628
3756.790, 351.4283
3758.719, 349.1281
3760.647, 344.3876
3762.575, 340.9354
3764.504, 343.7325
3766.432, 345.4545
3768.361, 343.6244
3770.289, 341.5406
3772.218, 339.7078
3774.146, 339.6713
3776.075, 340.2992
3778.003, 341.3148
3779.932, 340.9452
3781.860, 338.5574
3783.789, 336.7103
3785.717, 335.3813
3787.646, 334.6797
3789.574, 333.9225
3791.502, 332.5700
3793.431, 331.8808
3795.359, 332.0126
3797.288, 331.5008
3799.216, 330.7989
3801.145, 330.6418
3803.073, 330.2732
3805.002, 329.2813
3806.930, 329.5197
3808.859, 330.6204
3810.787, 329.2147
3812.716, 327.4496
3814.644, 327.5421
3816.573, 327.8480
3818.501, 328.1025
3820.429, 325.9019
3822.358, 323.2659
3824.286, 327.7951
3826.215, 331.7245
3828.143, 328.8304
3830.072, 327.1141
3832.000, 327.3156
3833.929, 330.2463
3835.857, 332.3572
3837.786, 327.1429
3839.714, 322.6179
3841.643, 321.6020
3843.571, 323.6723
3845.500, 327.5248
3847.428, 328.5593
3849.356, 327.8704
3851.285, 325.3820
3853.213, 324.9511
3855.142, 327.2692
3857.070, 325.5939
3858.999, 322.7476
3860.927, 323.8967
3862.856, 325.9528
3864.784, 328.2228
3866.713, 327.8979
3868.641, 325.8918
3870.570, 327.9798
3872.498, 330.2197
3874.427, 329.0332
3876.355, 328.2676
3878.283, 328.5700
3880.212, 326.8581
3882.140, 324.8910
3884.069, 324.5821
3885.997, 326.4754
3887.926, 331.3478
3889.854, 332.6893
3891.783, 331.1870
3893.711, 332.2408
3895.640, 334.6354
3897.568, 338.5569
3899.497, 339.5623
3901.425, 337.8444
3903.354, 337.2722
3905.282, 337.8587
3907.210, 340.3936
3909.139, 341.7027
3911.067, 339.9744
3912.996, 342.1075
3914.924, 345.4957
3916.853, 341.3214
3918.781, 338.8135
3920.710, 343.0738
3922.638, 345.2192
3924.567, 345.4828
3926.495, 348.3538
3928.424, 351.2378
3930.352, 350.6362
3932.281, 350.5010
3934.209, 351.7552
3936.137, 349.7298
3938.066, 348.1946
3939.994, 351.1820
3941.923, 354.5813
3943.851, 356.3287
3945.780, 354.3852
3947.708, 352.4863
3949.637, 355.1394
3951.565, 357.5500
3953.494, 354.9260
3955.422, 353.0748
3957.351, 354.2578
3959.279, 358.2923
3961.208, 360.3716
3963.136, 358.7798
3965.064, 359.1277
3966.993, 359.7216
3968.921, 359.5516
3970.850, 360.0059
3972.778, 361.6538
3974.707, 362.1769
3976.635, 360.0646
3978.564, 362.4818
3980.492, 366.2988
3982.421, 366.0602
3984.349, 366.7451
3986.278, 369.1201
3988.206, 368.2878
3990.135, 366.9203
3992.063, 369.1370
3993.991, 371.1285
3995.920, 371.7538
3997.848, 370.7305
3999.777, 369.7358
4001.705, 373.4284
4003.634, 377.1944
4005.562, 379.8489
4007.491, 382.5807
4009.419, 383.2413
4011.348, 382.0851
4013.276, 383.4154
4015.205, 386.9435
4017.133, 388.0096
4019.062, 388.3179
4020.990, 389.3885
4022.918, 390.1566
4024.847, 392.2326
4026.775, 392.1157
4028.704, 390.3586
4030.632, 391.3276
4032.561, 393.2119
4034.489, 394.8023
4036.418, 397.2139
4038.346, 399.9645
4040.275, 399.5318
4042.203, 398.5527
4044.132, 398.6860
4046.060, 398.8860
4047.989, 398.9526
4049.917, 401.2832
4051.845, 403.4272
4053.774, 401.3936
4055.702, 401.3124
4057.631, 403.9519
4059.559, 402.2983
4061.488, 399.7201
4063.416, 400.1870
4065.345, 400.0024
4067.273, 398.9183
4069.202, 398.5864
4071.130, 398.0298
4073.059, 395.8661
4074.987, 394.0583
4076.916, 393.0833
4078.844, 392.7321
4080.772, 392.6850
4082.701, 392.1594
4084.629, 392.3533
4086.558, 394.7030
4088.486, 392.8813
4090.415, 389.0463
4092.343, 387.6741
4094.272, 386.2107
4096.200, 383.1722
4098.129, 379.8827
4100.057, 378.0301
4101.986, 379.8458
4103.914, 381.2184
4105.843, 381.8679
4107.771, 378.6833
4109.700, 373.6092
4111.628, 374.5513
4113.557, 374.7222
4115.485, 369.3859
4117.414, 369.3130
4119.342, 373.4537
4121.271, 371.1099
4123.199, 367.8621
4125.127, 367.4003
4127.056, 366.0212
4128.984, 365.2959
4130.913, 367.0535
4132.841, 366.9291
4134.770, 364.1902
4136.698, 363.8748
4138.626, 364.8238
4140.555, 363.0463
4142.483, 361.7712
4144.412, 365.5023
4146.340, 363.0562
4148.269, 357.0259
4150.197, 358.8018
4152.126, 360.6095
4154.054, 357.5224
4155.983, 357.1230
4157.911, 359.2502
4159.840, 355.8953
4161.768, 354.9217
4163.697, 360.4739
4165.625, 359.2805
4167.554, 354.4798
4169.482, 355.2258
4171.411, 356.9149
4173.339, 355.7455
4175.268, 354.9000
4177.196, 354.6693
4179.125, 353.4386
4181.053, 352.2746
4182.981, 350.4542
4184.910, 349.6444
4186.838, 349.5507
4188.767, 351.7428
4190.695, 352.9251
4192.624, 350.4052
4194.552, 345.8030
4196.480, 340.6151
4198.409, 344.5171
4200.337, 350.1302
4202.266, 352.5011
4204.194, 351.4560
4206.123, 349.3768
4208.051, 350.7416
4209.980, 351.9720
4211.908, 352.0296
4213.837, 349.7743
4215.765, 346.7214
4217.694, 345.1083
4219.622, 345.0404
4221.551, 346.9571
4223.479, 346.6355
4225.408, 345.3957
4227.336, 343.6086
4229.265, 344.7538
4231.193, 349.2429
4233.122, 347.4908
4235.050, 344.0534
4236.979, 344.0128
4238.907, 343.7603
4240.835, 342.7420
4242.764, 342.2655
4244.692, 342.9941
4246.621, 346.3693
4248.549, 347.5374
4250.478, 346.5614
4252.406, 344.9930
4254.334, 342.8848
4256.263, 339.8608
4258.191, 338.4335
4260.120, 338.3251
4262.048, 338.4511
4263.977, 339.2242
4265.905, 340.8826
4267.834, 341.8709
4269.762, 341.4662
4271.691, 337.2514
4273.619, 336.3304
4275.548, 339.7716
4277.476, 337.1114
4279.405, 333.5374
4281.333, 334.7093
4283.262, 336.0662
4285.190, 336.6447
4287.119, 334.3990
4289.047, 332.3909
4290.976, 333.2857
4292.904, 331.4819
4294.833, 328.6100
4296.761, 330.2055
4298.689, 330.8484
4300.618, 328.2491
4302.546, 328.3134
4304.475, 329.1910
4306.403, 326.7828
4308.332, 328.2181
4310.260, 333.9670
4312.188, 330.7818
4314.117, 325.7848
4316.045, 325.2092
4317.974, 324.0420
4319.902, 322.8895
4321.831, 326.6601
4323.759, 328.6143
4325.688, 324.3018
4327.616, 320.0704
4329.545, 318.2655
4331.473, 326.2087
4333.402, 328.6004
4335.330, 322.4737
4337.259, 324.3409
4339.187, 326.7542
4341.116, 322.5475
4343.044, 319.0675
4344.973, 317.5643
4346.901, 322.3480
4348.830, 325.3615
4350.758, 322.9755
4352.687, 321.1288
4354.615, 320.1761
4356.543, 320.9423
4358.472, 320.6922
4360.400, 319.1400
4362.329, 319.7313
4364.257, 319.4572
4366.186, 315.9039
4368.114, 316.6062
4370.042, 319.4942
4371.971, 318.6939
4373.899, 317.1740
4375.828, 315.8092
4377.756, 316.1571
4379.685, 317.0494
4381.613, 317.6641
4383.542, 317.2350
4385.470, 316.1030
4387.399, 314.3414
4389.327, 315.7249
4391.256, 322.3946
4393.184, 321.8524
4395.113, 318.4280
4397.041, 318.4448
4398.970, 317.3704
4400.898, 314.9635
4402.827, 313.1720
4404.755, 313.3811
4406.684, 318.0478
4408.612, 315.7543
4410.541, 311.1675
4412.469, 312.5831
4414.397, 313.7441
4416.326, 313.8031
4418.254, 318.8991
4420.183, 321.0216
4422.111, 314.7724
4424.040, 314.7751
4425.968, 317.0846
4427.896, 311.9724
4429.825, 308.5116
4431.753, 308.1639
4433.682, 308.7444
4435.610, 309.6225
4437.539, 310.5462
4439.467, 310.9309
4441.396, 311.0928
4443.324, 312.4738
4445.253, 311.2877
4447.181, 307.1945
4449.110, 305.3317
4451.038, 305.6119
4452.967, 308.4225
4454.895, 312.3694
4456.824, 315.1786
4458.752, 311.7751
4460.681, 310.7538
4462.609, 313.0424
4464.538, 313.1336
4466.466, 312.4596
4468.395, 311.8341
4470.323, 307.9973
4472.251, 304.2466
4474.180, 305.5697
4476.108, 307.3001
4478.037, 308.7746
4479.965, 311.1113
4481.894, 312.1404
4483.822, 310.6092
4485.750, 309.0244
4487.679, 307.3528
4489.607, 304.9212
4491.536, 305.9778
4493.464, 308.4615
4495.393, 303.0086
4497.321, 299.7863
4499.250, 301.3978
4501.178, 306.5809
4503.107, 309.6284
4505.035, 305.7132
4506.964, 304.6903
4508.892, 305.4414
4510.821, 305.2236
4512.749, 302.8423
4514.678, 299.0137
4516.606, 301.2521
4518.535, 304.6555
4520.463, 307.2420
4522.392, 304.3344
4524.320, 301.9429
4526.249, 307.8309
4528.177, 308.5882
4530.105, 305.3730
4532.034, 305.7798
4533.962, 304.9120
4535.891, 301.8488
4537.819, 303.4395
4539.748, 304.9166
4541.676, 302.5749
4543.604, 300.4204
4545.533, 298.8915
4547.461, 298.6990
4549.390, 298.2766
4551.318, 297.5277
4553.247, 296.4783
4555.175, 296.6599
4557.104, 298.3242
4559.032, 299.3402
4560.961, 299.8856
4562.889, 300.4008
4564.818, 298.5666
4566.746, 296.8761
4568.675, 300.5274
4570.603, 299.9507
4572.532, 295.7404
4574.460, 294.5392
4576.389, 293.7554
4578.317, 292.7923
4580.246, 293.7742
4582.174, 294.4747
4584.103, 293.2278
4586.031, 292.3620
4587.959, 291.7428
4589.888, 290.8014
4591.816, 291.5851
4593.745, 292.9587
4595.673, 290.3350
4597.602, 289.7861
4599.530, 291.7999
4601.458, 290.7234
4603.387, 289.9118
4605.315, 291.3146
4607.244, 289.6348
4609.172, 287.1362
4611.101, 285.5118
4613.029, 287.1233
4614.958, 289.3091
4616.886, 286.5692
4618.815, 286.1841
4620.743, 288.1459
4622.672, 289.8482
4624.600, 287.4578
4626.529, 280.4384
4628.457, 284.8536
4630.386, 287.5317
4632.314, 280.3705
4634.243, 278.6718
4636.171, 280.7787
4638.100, 285.7713
4640.028, 286.0939
4641.957, 284.6118
4643.885, 288.9347
4645.813, 287.0908
4647.742, 280.7208
4649.670, 284.3189
4651.599, 284.4423
4653.527, 278.7502
4655.456, 278.7803
4657.384, 281.3164
4659.313, 284.7585
4661.241, 283.1862
4663.169, 280.3582
4665.098, 279.5637
4667.026, 278.9834
4668.955, 278.4361
4670.883, 277.8396
4672.812, 277.0443
4674.740, 275.7118
4676.669, 272.2944
4678.597, 270.9350
4680.526, 271.9966
4682.454, 273.9648
4684.383, 275.4508
4686.311, 276.1043
4688.240, 277.9346
4690.168, 278.2134
4692.097, 275.8559
4694.025, 274.1148
4695.954, 273.4606
4697.882, 274.7789
4699.811, 273.8898
4701.739, 272.9627
4703.667, 275.0399
4705.596, 272.9933
4707.524, 269.4550
4709.453, 270.0633
4711.381, 270.9443
4713.310, 271.6111
4715.238, 272.6601
4717.167, 272.4597
4719.095, 271.1319
4721.023, 271.5438
4722.952, 271.2224
4724.880, 269.4356
4726.809, 265.8871
4728.737, 263.6725
4730.666, 264.3115
4732.594, 265.8113
4734.523, 267.2759
4736.451, 268.2216
4738.380, 266.0739
4740.308, 264.5582
4742.237, 268.5825
4744.165, 269.7739
4746.094, 268.5961
4748.022, 264.9565
4749.951, 267.3499
4751.879, 271.3334
4753.808, 267.6910
4755.736, 265.5798
4757.665, 265.2346
4759.593, 264.0341
4761.521, 265.5293
4763.450, 268.2968
4765.378, 265.0119
4767.307, 262.8917
4769.235, 262.6694
4771.164, 257.5996
4773.092, 255.2240
4775.021, 257.3548
4776.949, 261.2524
4778.877, 263.1314
4780.806, 261.7639
4782.734, 259.6668
4784.663, 259.0872
4786.591, 261.1842
4788.520, 255.3571
4790.448, 252.1580
4792.377, 257.4501
4794.305, 260.0225
4796.234, 259.5260
4798.162, 255.1155
4800.091, 256.6947
4802.019, 258.7610
4803.948, 256.7127
4805.876, 252.3676
4807.805, 249.4392
4809.733, 252.6417
4811.662, 254.0800
4813.590, 253.9590
4815.519, 252.6853
4817.447, 252.3935
4819.375, 252.8139
4821.304, 253.5714
4823.232, 253.3621
4825.161, 253.0719
4827.089, 254.6530
4829.018, 254.1745
4830.946, 252.3584
4832.875, 251.0035
4834.803, 250.1942
4836.731, 250.5451
4838.660, 255.0100
4840.588, 251.9545
4842.517, 245.7145
4844.445, 250.8150
4846.374, 250.7205
4848.302, 246.8466
4850.231, 249.9613
4852.159, 248.7800
4854.088, 244.7260
4856.016, 247.1442
4857.945, 245.5558
4859.873, 241.4809
4861.802, 245.5189
4863.730, 247.4640
4865.659, 246.4729
4867.587, 244.9404
4869.516, 245.3549
4871.444, 246.7476
4873.373, 244.1191
4875.301, 243.4228
4877.229, 244.3396
4879.158, 242.7399
4881.086, 239.4177
4883.015, 236.0944
4884.943, 237.6804
4886.872, 240.5058
4888.800, 242.9240
4890.729, 241.8895
4892.657, 242.3343
4894.585, 242.7734
4896.514, 234.6819
4898.442, 232.2998
4900.371, 235.0948
4902.299, 236.0242
4904.228, 235.0766
4906.156, 233.8631
4908.085, 236.3707
4910.013, 238.7677
4911.942, 239.2891
4913.870, 234.4674
4915.799, 232.4363
4917.727, 232.9866
4919.656, 234.3864
4921.584, 233.0234
4923.513, 230.9185
4925.441, 232.5741
4927.370, 232.0423
4929.298, 229.9914
4931.227, 227.6427
4933.155, 228.5095
4935.083, 231.3616
4937.012, 235.2790
4938.940, 233.6602
4940.869, 229.9075
4942.797, 228.3420
4944.726, 225.9582
4946.654, 224.5425
4948.583, 226.4448
4950.511, 226.3798
4952.439, 224.9257
4954.368, 222.6338
4956.296, 224.8713
4958.225, 227.4161
4960.153, 227.1679
4962.082, 224.6964
4964.010, 222.9311
4965.939, 223.1361
4967.867, 221.8667
4969.796, 219.7897
4971.724, 217.4673
4973.653, 221.1319
4975.581, 224.6551
4977.510, 225.8839
4979.438, 225.9916
4981.367, 223.1996
4983.295, 218.8079
4985.224, 221.2755
4987.152, 222.2386
4989.081, 220.5695
4991.009, 218.3698
4992.938, 216.7024
4994.866, 215.8697
4996.794, 215.8338
4998.723, 218.4659
5000.651, 220.6255
5002.580, 216.5479
5004.508, 216.1450
5006.437, 217.0005
5008.365, 215.2565
5010.293, 215.1639
5012.222, 214.8439
5014.150, 212.2694
5016.079, 209.7548
5018.007, 211.3454
5019.936, 218.3841
5021.864, 217.4930
5023.793, 213.8476
5025.721, 210.2777
5027.650, 211.3827
5029.578, 212.6721
5031.507, 212.6658
5033.435, 210.0603
5035.364, 211.6047
5037.292, 214.7211
5039.221, 207.4081
5041.149, 206.7524
5043.078, 209.5531
5045.006, 206.1349
5046.935, 208.3408
5048.863, 211.3033
5050.792, 208.1412
5052.720, 205.5834
5054.648, 204.7419
5056.577, 206.3676
5058.505, 203.4503
5060.434, 203.5906
5062.362, 208.8403
5064.291, 207.9259
5066.219, 205.7482
5068.147, 204.3492
5070.076, 205.9233
5072.004, 204.8927
5073.933, 202.1799
5075.861, 202.5484
5077.790, 202.0466
5079.718, 201.4923
5081.647, 203.1864
5083.575, 202.1880
5085.504, 201.7286
5087.432, 204.4918
5089.361, 201.8925
5091.289, 199.4698
5093.218, 199.7668
5095.146, 196.6895
5097.075, 196.5219
5099.003, 199.4960
5100.932, 197.5434
5102.860, 195.8555
5104.789, 195.6197
5106.717, 197.5340
5108.646, 198.8980
5110.574, 199.2087
5112.502, 197.7053
5114.431, 197.8058
5116.359, 198.0348
5118.288, 197.4064
5120.216, 195.4957
5122.145, 194.0466
5124.073, 193.4554
5126.001, 191.5472
5127.930, 191.4890
5129.858, 193.1274
5131.787, 195.2856
5133.715, 192.9769
5135.644, 189.3788
5137.572, 188.6641
5139.501, 189.8374
5141.429, 190.8701
5143.358, 190.4814
5145.286, 194.8943
5147.215, 197.0212
5149.143, 195.2076
5151.072, 191.2299
5153.000, 189.1228
5154.929, 188.9169
5156.857, 189.5840
5158.786, 190.4579
5160.714, 190.6924
5162.643, 189.5929
5164.571, 188.8365
5166.500, 187.9959
5168.428, 187.1858
5170.356, 190.1801
5172.285, 190.7644
5174.213, 188.6541
5176.142, 187.1712
5178.070, 185.6319
5179.999, 184.8068
5181.927, 185.7522
5183.855, 185.2842
5185.784, 184.6161
5187.712, 184.5471
5189.641, 183.4044
5191.569, 183.7610
5193.498, 184.9854
5195.426, 182.6916
5197.355, 181.4221
5199.283, 181.1152
5201.212, 181.1416
5203.140, 178.7856
5205.069, 178.0027
5206.997, 180.8286
5208.926, 179.1377
5210.854, 178.0161
5212.783, 178.4597
5214.711, 179.5120
5216.640, 180.0880
5218.568, 180.3110
5220.497, 180.6679
5222.425, 179.8153
5224.354, 177.8321
5226.282, 175.2446
5228.210, 175.5682
5230.139, 175.9819
5232.067, 175.8913
5233.996, 175.5585
5235.924, 175.2270
5237.853, 174.7734
5239.781, 174.1060
5241.709, 171.4402
5243.638, 171.1324
5245.566, 173.3097
5247.495, 170.0301
5249.423, 171.5517
5251.352, 174.9102
5253.280, 172.0786
5255.209, 171.2099
5257.137, 171.1840
5259.066, 171.2201
5260.994, 174.2017
5262.923, 173.8553
5264.851, 170.9647
5266.780, 172.1577
5268.708, 169.5127
5270.637, 166.2974
5272.565, 166.1695
5274.494, 166.0460
5276.422, 168.7679
5278.351, 173.3507
5280.279, 171.9337
5282.208, 170.4702
5284.136, 170.1806
5286.064, 172.3512
5287.993, 169.2464
5289.921, 167.0268
5291.850, 167.8868
5293.778, 165.4946
5295.707, 165.0566
5297.635, 166.5849
5299.563, 168.9224
5301.492, 168.3820
5303.420, 165.6914
5305.349, 161.8929
5307.277, 164.5414
5309.206, 165.6681
5311.134, 164.5871
5313.063, 163.4498
5314.991, 165.0702
5316.920, 164.6625
5318.848, 159.9017
5320.777, 163.7502
5322.705, 165.3586
5324.634, 163.9769
5326.562, 164.6426
5328.491, 161.8604
5330.419, 159.8553
5332.348, 161.3098
5334.276, 161.6161
5336.205, 161.8324
5338.133, 161.8875
5340.062, 161.0967
5341.990, 158.4122
5343.918, 156.9487
5345.847, 158.4915
5347.775, 159.0521
5349.704, 158.4176
5351.632, 157.7330
5353.561, 159.1825
5355.489, 160.3080
5357.417, 160.2304
5359.346, 158.5995
5361.274, 154.9662
5363.203, 154.2298
5365.131, 155.7682
5367.060, 157.1895
5368.988, 154.8260
5370.917, 154.2761
5372.845, 157.0487
5374.774, 155.7987
5376.702, 155.4586
5378.631, 155.4623
5380.559, 153.8862
5382.488, 152.6229
5384.416, 151.0370
5386.345, 149.5841
5388.273, 151.0081
5390.202, 150.4179
5392.130, 148.8327
5394.059, 147.7717
5395.987, 148.6168
5397.916, 149.2396
5399.844, 149.2547
5401.772, 149.2184
5403.701, 150.1530
5405.629, 149.2219
5407.558, 145.8377
5409.486, 148.4251
5411.415, 148.2088
5413.343, 146.9553
5415.271, 149.3839
5417.200, 148.4611
5419.128, 148.2721
5421.057, 149.7228
5422.985, 150.1293
5424.914, 147.2065
5426.842, 144.4220
5428.771, 144.4431
5430.699, 144.5853
5432.628, 145.3949
5434.556, 146.0328
5436.485, 144.3945
5438.413, 146.5675
5440.342, 145.8719
5442.270, 141.1771
5444.199, 141.4007
5446.127, 142.8599
5448.056, 144.4492
5449.984, 145.4798
5451.913, 142.4050
5453.841, 142.0179
5455.770, 142.9384
5457.698, 139.0788
5459.626, 140.6264
5461.555, 140.6027
5463.483, 137.2309
5465.412, 136.5073
5467.340, 138.7172
5469.269, 140.2387
5471.197, 138.8381
5473.125, 139.5168
5475.054, 140.7654
5476.982, 140.9929
5478.911, 138.4309
5480.839, 137.1163
5482.768, 139.0392
5484.696, 142.0781
5486.625, 137.7233
5488.553, 138.5909
5490.482, 139.4380
5492.410, 137.3083
5494.339, 137.2348
5496.267, 138.1071
5498.196, 137.6590
5500.124, 134.3375
5502.053, 136.8584
5503.981, 137.0433
5505.910, 135.2127
5507.838, 135.7825
5509.767, 135.0841
5511.695, 133.9378
5513.624, 132.6490
5515.552, 130.8285
5517.480, 130.6376
5519.409, 132.3231
5521.337, 134.6224
5523.266, 131.4361
5525.194, 129.9713
5527.123, 129.6427
5529.051, 129.1465
5530.979, 130.0008
5532.908, 131.0840
5534.836, 131.7644
5536.765, 131.6547
5538.693, 132.2111
5540.622, 129.9490
5542.550, 126.9871
5544.479, 128.2661
5546.407, 131.1676
5548.336, 130.4396
5550.264, 126.4347
5552.193, 124.9047
5554.121, 127.2039
5556.050, 128.2072
5557.978, 126.5758
5559.907, 127.6214
5561.835, 128.0110
5563.764, 127.5215
5565.692, 126.7072
5567.621, 128.2777
5569.549, 126.0180
5571.478, 124.0400
5573.406, 125.8326
5575.334, 122.7287
5577.263, 122.9039
5579.191, 124.8798
5581.120, 125.2629
5583.048, 124.7385
5584.977, 123.2654
5586.905, 122.3733
5588.833, 123.7935
5590.762, 123.3256
5592.690, 122.2528
5594.619, 121.2824
5596.547, 120.7012
5598.476, 121.6910
5600.404, 121.8111
5602.333, 121.0293
5604.261, 121.1442
5606.190, 119.6307
5608.118, 118.8298
5610.047, 119.2764
5611.975, 120.3674
5613.904, 118.0294
5615.832, 117.9519
5617.761, 120.4749
5619.689, 121.1774
5621.618, 118.4989
5623.546, 117.9769
5625.475, 119.7910
5627.403, 117.0289
5629.332, 118.1578
5631.260, 119.1594
5633.188, 118.7207
5635.117, 119.5757
5637.045, 118.8969
5638.974, 117.8021
5640.902, 116.9169
5642.831, 116.1503
5644.759, 115.6883
5646.688, 116.0574
5648.616, 116.5036
5650.544, 114.2952
5652.473, 114.3478
5654.401, 116.4290
5656.330, 118.4127
5658.258, 114.4174
5660.187, 114.5984
5662.115, 113.5966
5664.044, 111.1238
5665.972, 113.8580
5667.901, 115.7095
5669.829, 115.7302
5671.758, 114.3343
5673.686, 112.6804
5675.615, 110.7074
5677.543, 111.7404
5679.472, 114.2028
5681.400, 113.1897
5683.329, 108.5861
5685.257, 107.9847
5687.186, 111.0794
5689.114, 113.2514
5691.042, 111.1634
5692.971, 110.4666
5694.899, 111.7358
5696.828, 113.3465
5698.756, 112.2525
5700.685, 111.5628
5702.613, 109.9826
5704.542, 105.7027
5706.470, 109.5294
5708.398, 109.4206
5710.327, 107.7840
5712.255, 108.8513
5714.184, 108.6936
5716.112, 108.6626
5718.041, 109.0023
5719.969, 109.4043
5721.898, 107.8509
5723.826, 106.7710
5725.755, 106.3916
5727.683, 106.2985
5729.612, 104.5034
5731.540, 107.0874
5733.469, 108.4292
5735.397, 107.1354
5737.326, 106.7140
5739.254, 106.4970
5741.183, 105.7228
5743.111, 104.6535
5745.040, 104.0247
5746.968, 102.5008
5748.896, 102.8319
5750.825, 104.2309
5752.753, 104.9036
5754.682, 103.0205
5756.610, 102.0503
5758.539, 103.0087
5760.467, 105.3809
5762.396, 103.3000
5764.324, 102.0961
5766.252, 102.4036
5768.181, 103.2624
5770.109, 101.9473
5772.038, 101.1734
5773.966, 100.0234
5775.895, 99.83612
5777.823, 103.5283
5779.752, 104.7961
5781.680, 102.8401
5783.609, 100.3749
5785.537, 100.0795
5787.466, 99.39689
5789.394, 101.1509
5791.323, 102.4102
5793.251, 101.5373
5795.180, 102.6240
5797.108, 100.2473
5799.037, 99.20299
5800.965, 99.75732
5802.894, 95.91486
5804.822, 97.50278
5806.750, 99.62720
5808.679, 99.19479
5810.607, 94.87894
5812.536, 97.39808
5814.464, 96.67693
5816.393, 96.20179
5818.321, 98.17821
5820.250, 95.56123
5822.178, 96.04617
5824.106, 97.03083
5826.035, 96.88933
5827.963, 95.70483
5829.892, 95.73040
5831.820, 96.73055
5833.749, 97.40970
5835.677, 96.93663
5837.606, 97.53118
5839.534, 95.31216
5841.463, 92.56109
5843.391, 91.72783
5845.320, 96.48248
5847.248, 94.42586
5849.177, 94.28127
5851.105, 95.69646
5853.034, 94.55169
5854.962, 95.42820
5856.891, 93.44563
5858.819, 91.55404
5860.748, 92.12894
5862.676, 95.20453
5864.604, 93.38694
5866.533, 92.52267
5868.461, 92.88445
5870.390, 91.94747
5872.318, 89.08290
5874.247, 91.30390
5876.175, 93.29837
5878.104, 91.95521
5880.032, 90.69593
5881.960, 93.28574
5883.889, 92.83819
5885.817, 90.37354
5887.746, 90.05806
5889.674, 91.46964
5891.603, 92.95539
5893.531, 93.32650
5895.460, 92.20171
5897.388, 89.43098
5899.317, 89.78963
5901.245, 88.65608
5903.174, 87.99922
5905.102, 90.82970
5907.031, 91.41919
5908.959, 88.53802
5910.888, 87.99340
5912.816, 89.72809
5914.745, 88.23144
5916.673, 88.02588
5918.602, 87.75300
5920.530, 86.98445
5922.458, 86.21702
5924.387, 87.50630
5926.315, 86.31942
5928.244, 87.92699
5930.172, 90.23505
5932.101, 88.69376
5934.029, 86.38609
5935.958, 87.40820
5937.886, 87.41474
5939.814, 85.37223
5941.743, 84.70237
5943.671, 84.65755
5945.600, 87.89233
5947.528, 89.20366
5949.457, 86.21443
5951.385, 87.03102
5953.314, 85.41605
5955.242, 83.61747
5957.171, 84.20123
5959.099, 87.77733
5961.028, 84.48558
5962.956, 84.24151
5964.885, 86.67542
5966.813, 89.05915
5968.742, 88.12145
5970.670, 88.07013
5972.599, 85.77509
5974.527, 84.98081
5976.456, 87.28631
5978.384, 90.54537
5980.313, 95.62682
5982.241, 94.80810
5984.169, 91.06992
5986.098, 88.71920
5988.026, 89.46132
5989.955, 90.06436
5991.883, 86.36774
5993.812, 82.53340
5995.740, 82.88927
5997.668, 83.66267
5999.597, 82.46996
6001.525, 83.09920
6003.454, 83.40007
6005.382, 80.44405
6007.311, 80.34606
6009.239, 83.00055
6011.168, 83.77336
6013.096, 81.78545
6015.025, 78.91853
6016.953, 79.72464
6018.882, 80.18356
6020.810, 79.58918
6022.739, 78.66556
6024.667, 78.40950
6026.596, 78.67166
6028.524, 77.97614
6030.453, 77.62132
6032.381, 78.24390
6034.310, 79.42909
6036.238, 79.17195
6038.167, 79.58706
6040.095, 80.14830
6042.023, 79.53513
6043.952, 76.94427
6045.880, 76.75156
6047.809, 79.33415
6049.737, 78.70631
6051.666, 76.60828
6053.594, 79.65607
6055.522, 77.65288
6057.451, 78.37587
6059.379, 79.33357
6061.308, 78.55708
6063.236, 76.27835
6065.165, 75.74931
6067.093, 75.85884
6069.022, 75.34899
6070.950, 74.29429
6072.879, 73.61423
6074.807, 75.69440
6076.736, 76.93291
6078.664, 77.48189
6080.593, 76.49937
6082.521, 73.42017
6084.450, 74.48907
6086.378, 75.83514
6088.307, 73.43944
6090.235, 71.24142
6092.164, 73.33842
6094.092, 73.55400
6096.021, 74.94221
6097.949, 74.96759
6099.877, 74.21412
6101.806, 73.78619
6103.734, 73.44260
6105.663, 69.71105
6107.591, 71.03717
6109.520, 72.21175
6111.448, 70.46822
6113.376, 71.51673
6115.305, 72.10190
6117.233, 71.69608
6119.162, 70.20441
6121.090, 69.46968
6123.019, 72.47961
6124.947, 70.37001
6126.876, 69.28814
6128.804, 68.87835
6130.733, 68.81104
6132.661, 69.25716
6134.590, 70.17441
6136.518, 70.76086
6138.447, 71.83675
6140.375, 72.09343
6142.304, 71.44591
6144.232, 74.06140
6146.161, 70.47552
6148.089, 67.76956
6150.018, 68.67004
6151.946, 70.83583
6153.875, 69.43407
6155.803, 69.87692
6157.731, 66.58246
6159.660, 65.36724
6161.588, 66.52289
6163.517, 67.54448
6165.445, 68.16431
6167.374, 70.27957
6169.302, 69.79807
6171.230, 69.16420
6173.159, 70.71441
6175.087, 74.73866
6177.016, 68.87146
6178.944, 70.47054
6180.873, 69.93831
6182.801, 67.59005
6184.730, 68.58230
6186.658, 65.84681
6188.587, 65.99014
6190.515, 69.90654
6192.444, 69.88156
6194.372, 65.58696
6196.301, 66.33690
6198.229, 66.71021
6200.158, 65.40356
6202.086, 66.37370
6204.015, 66.52465
6205.943, 63.40196
6207.872, 66.24505
6209.800, 64.81194
6211.729, 66.94509
6213.657, 68.88505
6215.585, 67.68113
6217.514, 64.79311
6219.442, 67.31765
6221.371, 66.24232
6223.299, 64.74612
6225.228, 64.54258
6227.156, 64.90354
6229.084, 63.93646
6231.013, 65.64275
6232.941, 65.87572
6234.870, 63.80991
6236.798, 63.25390
6238.727, 65.80627
6240.655, 64.85480
6242.584, 62.45971
6244.512, 63.89822
6246.441, 65.87939
6248.369, 65.90481
6250.298, 64.11362
6252.226, 61.66584
6254.155, 64.60207
6256.083, 64.88815
6258.012, 64.42830
6259.940, 64.07026
6261.869, 61.81326
6263.797, 61.09783
6265.726, 63.45751
6267.654, 62.82827
6269.583, 63.21468
6271.511, 64.71357
6273.439, 61.47904
6275.368, 63.35680
6277.296, 61.77326
6279.225, 62.91857
6281.153, 64.32294
6283.082, 63.26243
6285.010, 61.49657
6286.938, 61.86489
6288.867, 62.44652
6290.795, 61.07030
6292.724, 59.49607
6294.652, 60.06163
6296.581, 64.17185
6298.509, 61.93204
6300.438, 60.88752
6302.366, 62.63793
6304.295, 62.63509
6306.223, 60.19082
6308.152, 60.31055
6310.080, 59.90707
6312.009, 64.44810
6313.937, 65.80839
6315.866, 62.64634
6317.794, 59.76994
6319.723, 62.12188
6321.651, 61.45425
6323.580, 57.05121
6325.508, 60.54571
6327.437, 61.04235
6329.365, 58.65166
6331.293, 62.18333
6333.222, 59.48972
6335.150, 60.87871
6337.079, 61.59119
6339.007, 60.29929
6340.936, 58.58181
6342.864, 58.22245
6344.792, 59.14086
6346.721, 62.27937
6348.649, 57.85851
6350.578, 59.32665
6352.506, 62.42820
6354.435, 60.06077
6356.363, 57.86708
6358.292, 60.72554
6360.220, 59.68032
6362.149, 58.06748
6364.077, 57.84069
6366.006, 57.69925
6367.934, 55.70354
6369.863, 57.62289
6371.791, 56.37456
6373.720, 58.73461
6375.648, 61.06160
6377.577, 60.22972
6379.505, 57.74235
6381.434, 58.80324
6383.362, 58.30165
6385.291, 58.45229
6387.219, 59.60250
6389.147, 58.44498
6391.076, 55.93143
6393.004, 56.70767
6394.933, 57.87195
6396.861, 59.16933
6398.790, 58.15454
6400.718, 56.95435
6402.646, 56.41860
6404.575, 56.07790
6406.503, 55.88289
6408.432, 57.21172
6410.360, 56.95485
6412.289, 56.01272
6414.217, 55.87836
6416.146, 56.82994
6418.074, 58.10342
6420.003, 58.52282
6421.931, 56.29377
6423.860, 56.88621
6425.788, 56.72493
6427.717, 55.98322
6429.645, 57.00618
6431.574, 59.72271
6433.502, 55.70945
6435.431, 55.99435
6437.359, 56.41901
6439.288, 56.66758
6441.216, 56.47429
6443.145, 56.40301
6445.073, 57.38599
6447.001, 54.40386
6448.930, 54.57470
6450.858, 54.37637
6452.787, 52.60675
6454.715, 52.67466
6456.644, 54.90353
6458.572, 53.89131
6460.500, 53.08167
6462.429, 52.46644
6464.357, 54.49235
6466.286, 56.20043
6468.214, 56.17181
6470.143, 55.18452
6472.071, 54.45303
6474.000, 54.84578
6475.928, 55.65950
6477.857, 53.37889
6479.785, 53.24851
6481.714, 53.81666
6483.642, 53.79179
6485.571, 55.38823
6487.499, 53.91230
6489.428, 52.49190
6491.356, 49.85308
6493.285, 53.19170
6495.213, 54.88280
6497.142, 53.37214
6499.070, 55.12123
6500.999, 52.62907
6502.927, 53.44161
6504.855, 53.26071
6506.784, 53.69983
6508.712, 52.73763
6510.641, 50.94333
6512.569, 51.38162
6514.498, 54.75654
6516.426, 53.54952
6518.354, 55.08170
6520.283, 52.23525
6522.211, 50.76391
6524.140, 50.48397
6526.068, 50.03629
6527.997, 51.46679
6529.925, 50.93832
6531.854, 49.19080
6533.782, 48.61680
6535.711, 50.41392
6537.639, 49.90846
6539.568, 49.52591
6541.496, 51.61963
6543.425, 48.96550
6545.353, 50.63506
6547.282, 51.98830
6549.210, 49.33737
6551.139, 48.78693
6553.067, 49.62263
6554.996, 50.37668
6556.924, 51.86431
6558.853, 52.33463
6560.781, 48.52258
6562.709, 47.27612
6564.638, 48.88027
6566.566, 48.49716
6568.495, 48.17326
6570.423, 48.60236
6572.352, 47.09526
6574.280, 48.81586
6576.208, 49.28828
6578.137, 51.16118
6580.065, 49.70963
6581.994, 47.01988
6583.922, 47.52899
6585.851, 49.93542
6587.779, 49.20675
6589.708, 48.50932
6591.636, 48.36953
6593.565, 51.28834
6595.493, 49.99186
6597.422, 50.28191
6599.350, 50.17745
6601.279, 48.90527
6603.207, 49.45328
6605.136, 46.67588
6607.064, 47.19805
6608.993, 48.03337
6610.921, 48.55679
6612.850, 46.82998
6614.778, 45.96073
6616.707, 46.64584
6618.635, 47.30268
6620.563, 49.18182
6622.492, 44.98308
6624.420, 46.24424
6626.349, 47.24862
6628.277, 48.13438
6630.206, 48.43182
##END=



